time_stamp[s],x_true_pose[mm],y_true_pose[mm],theta_true[rad],x_pose[mm],y_pose[mm],theta[rad],p_err[mm],a_err[mm],num_particles,valid_pose
0.2000267505645752,-7.798437029123306,6.66387751698494,0.01468258361536424,-500.02978754052396,13.488993059257668,-0.04804134525116735,492.2786656238951,3.593816398531054,388.0,1
5.2583537101745605,47.06243798136711,7.175207138061523,0.015408899986168519,-447.5458935528392,16.064875082615533,-0.04094606168229158,494.68821273527,3.2289014582242963,377.0,1
5.591619491577148,101.73068940639496,7.197536528110504,0.018643810995422092,-391.2576489374755,21.869134794756395,-0.053356276616182086,493.20660735512087,4.125301144717083,297.0,1
5.933295726776123,155.37530183792114,7.599528878927231,0.019922083665521,-331.6115422613454,20.605091885647976,-0.0805952459064248,487.1604776609912,5.759218752398037,332.0,1
6.2500081062316895,205.44227957725525,8.096866309642792,0.021235458369202355,-284.20501150666325,11.28845145196161,-0.10590013472174506,489.6576925583221,7.284332910003875,228.0,1
6.575058698654175,254.76276874542236,9.694106876850128,0.020918959801275647,-227.09755914402612,9.26004628344817,-0.10991376410025294,481.860523390665,7.496162901757959,192.0,1
6.891724109649658,310.03618240356445,11.325053870677948,0.0214481467498035,-168.29805230530977,1.3359928173433282,-0.12880394826007657,478.4385241964234,8.608810907064786,180.0,1
7.208364248275757,361.9089126586914,12.401387095451355,0.016949949622345375,-118.09385762867761,-5.596470812710604,-0.12106547151645966,480.34006950579413,7.907701138974176,168.0,1
7.533289432525635,417.3641800880432,12.300308793783188,0.023720554061313157,-55.85964249875147,-7.910258277702915,-0.11887914515577967,473.6552050648332,8.170360924974409,180.0,1
7.833282232284546,467.30679273605347,13.620872050523758,0.023613588659249486,-12.313162320092536,-19.555977881884953,-0.1344402978695702,480.7660602200379,9.055820633740986,156.0,1
8.125028133392334,517.1481370925903,14.952465891838074,0.02393610926587476,50.411743152644014,-18.411366611957167,-0.10954673973326448,467.92735199751473,7.648003885032743,156.0,1
8.425002098083496,567.8004622459412,15.589021146297455,0.026640631539029114,105.96904761092469,-11.205062936682232,-0.10329734328601131,462.608018181296,7.444897555951958,168.0,1
8.724974632263184,620.1702952384949,17.164167016744614,0.026842583217008106,175.31765700309194,-3.783458256869803,-0.09484780086888181,445.3455655438842,6.9723454154474505,144.0,1
9.024972200393677,670.3279614448547,18.09656247496605,0.029149245251895266,267.4868365136253,4.50686177812052,-0.07906192422769842,403.0702815898094,6.200043307355584,106.0,1
9.324958086013794,723.7096428871155,19.23830434679985,0.031495686784724704,344.6352483626438,10.63017928611655,-0.0772640029109436,379.17211975718254,6.231471200714262,132.0,1
9.624958515167236,776.3136029243469,20.105676725506783,0.0328974829271267,407.6913905062305,8.096033217491007,-0.09190633970297422,368.81779651369396,7.150732303804096,144.0,1
9.983319282531738,795.8868145942688,20.78840881586075,0.12125827559086379,446.75599439380744,16.90296927955237,-0.03125152694547656,349.152439851474,8.73816801970588,156.0,1
10.12500262260437,799.2260456085205,22.500507533550262,0.17449930092464325,460.2906619153894,17.457012436851635,0.02368546385849661,338.97290623588253,8.64099635606386,119.0,1
10.283291578292847,797.2650527954102,22.189009934663773,0.22740591311357553,482.211323231083,17.524404353706938,0.07444560289096455,315.08825915545964,8.763980208767391,106.0,1
10.399967193603516,798.8948822021484,22.04005792737007,0.27260289175033525,485.5413568661496,16.93721243675294,0.13143693751437605,313.3950715512284,8.088213388657389,132.0,1
10.566632747650146,800.7989525794983,22.49845117330551,0.33430867860904634,492.7496161076817,15.698903100100143,0.18362944961523014,308.1243702707177,8.633283881630934,119.0,1
10.699981212615967,801.9951581954956,22.973012179136276,0.3880066411549619,489.05797135325327,12.963255683293372,0.22756934907740192,313.09723431203054,9.192379712551867,119.0,1
10.866698503494263,803.4780025482178,23.886684328317642,0.45142733633998694,505.0510347725661,14.746917549208677,0.278299772706828,298.56689440148307,9.919478713562604,144.0,1
11.000016212463379,804.8339486122131,24.38177727162838,0.5043519275618457,507.7226340577795,15.27250195887916,0.33695397781712727,297.25092452839755,9.59119601951542,106.0,1
11.158406019210815,805.9345483779907,25.488536804914474,0.5665476195848665,529.712646692063,14.260976287156153,0.3976878305123541,276.449990208302,9.67495324332426,144.0,1
11.28335976600647,806.8208694458008,26.289764791727066,0.6136425885277244,545.8436202056973,14.754810275113497,0.44779474306741096,261.23204205577736,9.502381586213865,119.0,1
11.441619396209717,807.5008988380432,27.279598638415337,0.6788080130246016,574.8029154110486,16.402337706341125,0.5091024293895464,232.9520686672996,9.723413702093072,101.0,1
11.558401107788086,808.3277344703674,27.93901599943638,0.7217226621396329,581.7342525081668,19.173992442373862,0.5660874331767207,226.76294164988687,8.917241763127098,119.0,1
11.69999647140503,809.053361415863,28.859717771410942,0.7805114476814459,597.7198934522972,26.826361848859868,0.6220743319116684,211.34324975691857,9.077778051833869,119.0,1
11.858365058898926,810.0146651268005,30.017632991075516,0.8434779726249885,612.3387888608439,40.222970258912994,0.690664759357704,197.93913449912856,8.755552174047958,119.0,1
11.98333191871643,811.0719919204712,31.093763187527657,0.8947117714355819,615.2605367906565,43.680668439662604,0.7533968700503055,196.2155858842046,8.096747431683767,119.0,1
12.141648054122925,811.560869216919,32.311610877513885,0.9627287434216154,622.1291910474894,45.137226926458865,0.8148126880546201,189.8653657756498,8.474965694752237,101.0,1
12.258262395858765,811.9112849235535,33.296942710876465,1.0099009387131854,631.109659230482,50.5367610073169,0.8730918936704775,181.6216925043697,7.838580880162345,106.0,1
12.374913215637207,811.7257356643677,33.95681455731392,1.0602688805979397,638.6111538277432,62.445779655730746,0.9304613110922131,175.44309498195747,7.437425881529219,101.0,1
12.516696214675903,812.4471306800842,34.99104082584381,1.116840885010516,656.0288515997377,80.61966832908264,1.016491241539319,162.937563742332,5.7496110465421255,106.0,1
12.6416015625,813.2089376449585,35.961464047431946,1.1710340169638915,652.2909468428091,74.44042083125898,1.0552847084487065,165.454615768108,6.631946859477784,106.0,1
12.77493929862976,813.5678768157959,39.317190647125244,1.2135966245226535,671.2977195173975,105.66313457186668,1.1302249708353693,156.97955896541424,4.77684388730769,101.0,1
13.116638898849487,836.726725101471,102.49888896942139,1.2357334822211665,695.2896178559188,162.44072630232554,1.1579763268195724,153.6147101316608,4.4551568314542145,101.0,1
13.433311223983765,856.1540842056274,153.05978059768677,1.2544442860864242,711.4927549704249,207.49907228488482,1.1867159686912565,154.5656386636418,3.8805467402655873,101.0,1
13.758314371109009,872.8278279304504,205.10151982307434,1.2743461879863158,739.8020526440525,271.3436216945146,1.211375432629508,148.6064364383101,3.6079585146959037,101.0,1
14.09995412826538,890.1408314704895,264.8647725582123,1.2918738718219198,757.3201624833972,328.41362569793233,1.2458796849838703,147.24057472569322,2.6352727879564006,101.0,1
14.41662883758545,904.3919444084167,316.0087466239929,1.3074282166956999,767.4183807894882,377.28346665441273,1.2682508809740023,150.0544849222275,2.244695989420388,101.0,1
14.716645002365112,917.8964495658875,365.7423257827759,1.3299252824414114,786.9697481487241,438.87628488636915,1.2975254094570718,149.96792029679247,1.8563759787625915,101.0,1
15.008352279663086,929.839551448822,416.93294048309326,1.3412303402351908,803.5302625464163,488.5017603446654,1.3083264244189547,145.17621168569437,1.8852555057240852,101.0,1
15.308315992355347,941.3439035415649,468.0730998516083,1.3512476563861093,816.97058676198,530.342882556191,1.3167670155003373,139.09078964773664,1.9755951976609687,101.0,1
15.608393669128418,952.1424174308777,519.0243721008301,1.3900521662788605,833.1381678261673,580.5937750939653,1.3486888113301914,133.98806965141074,2.369945665060311,101.0,1
15.908298015594482,961.340069770813,569.02015209198,1.4040793028464633,847.6732620876268,621.0800395628569,1.3398254500530808,125.02149836074918,3.681474582515691,101.0,1
16.208268404006958,970.1386094093323,620.0553774833679,1.414445003081857,861.437168922058,671.7679915472178,1.346042653009272,120.37523672801272,3.9191659679355006,101.0,1
16.508322954177856,982.0215106010437,670.5245971679688,1.435343298155699,874.7565622636741,726.7557297581942,1.3569365314672155,121.11031918956401,4.492376816517043,101.0,1
16.808286666870117,986.2582683563232,726.830244064331,1.4440485181941156,888.3299145420931,772.7151294943369,1.3695725468112165,108.1452042010639,4.267158835377213,101.0,1
17.091629028320312,993.0826425552368,776.0934233665466,1.454488193802283,895.1759629536662,822.3950948127903,1.381338894192566,108.30310563100443,4.191146141974741,101.0,1
17.36667513847351,999.3742108345032,826.8703818321228,1.4628175409681614,907.6341376230254,863.441296617322,1.3714536143884115,98.76068469321994,5.234767392762792,101.0,1
17.66663408279419,1005.3279399871826,877.1673440933228,1.4758151671216844,916.3524413519444,904.4571623760182,1.3720494669217966,93.06650062880742,5.94533667967337,101.0,1
17.966708421707153,1006.4271688461304,891.0223841667175,1.5689433163284565,918.1266816179583,909.682061020004,1.4198315382205486,90.25053786544241,8.543475561274345,101.0,1
18.06663727760315,1006.4612627029419,893.8682675361633,1.6093457594968645,919.0252290105979,907.7482380499997,1.4838411452013631,88.53086224200965,7.190884708549489,101.0,1
18.258350372314453,1006.4691305160522,897.2395062446594,1.6920080536997977,921.371009362827,913.999132396324,1.532665446143519,86.73278095710161,9.129658909584151,101.0,1
18.341672658920288,1006.3025951385498,898.3399271965027,1.729696587386149,923.1242443768183,935.9663900239357,1.595808039848903,91.29287343679044,7.671248699020888,106.0,1
18.466639518737793,1005.9374570846558,900.6208181381226,1.7832367285257318,920.6613173541496,938.9091068272866,1.6509622309959993,93.4773398106813,7.578770445667305,101.0,1
18.600027322769165,1005.2347183227539,903.4667611122131,1.8483057093513715,917.744399369519,935.8612731683828,1.7114128763299075,93.29501766919871,7.843381577718999,101.0,1
18.69986891746521,1003.6664009094238,910.8498692512512,1.8928750006997384,919.4767928518842,946.6422845312759,1.7684581142393518,91.4821681884502,7.128562494338504,101.0,1
18.841628313064575,1003.4753084182739,910.0111126899719,1.9553731701791932,919.0518782146598,952.2594016782363,1.8254062803713658,94.40462642148634,7.446554262430348,101.0,1
18.94158172607422,1003.0759572982788,911.3179445266724,1.9907852591122563,919.2407474457973,956.1633311526089,1.8751214639919018,95.07602806511922,6.6270473028621595,101.0,1
19.099990606307983,1000.6492137908936,913.1874442100525,2.0562032477284626,922.0109658960614,949.0519949576274,1.9344033746637357,86.4305503412679,6.978618671838011,101.0,1
19.224931478500366,999.3478655815125,914.7161245346069,2.1110308319256363,927.9612108539342,953.88659788098,1.9767547503670972,81.4271481471223,7.6934527628587155,101.0,1
19.341610431671143,998.1030225753784,915.7243967056274,2.163258938358632,928.240630116701,946.023865222661,2.0334879918668247,76.14992890649978,7.435327537398596,101.0,1
19.483265161514282,996.575117111206,917.3192977905273,2.222111433325167,927.5856143058273,945.0988930835258,2.072025658183637,74.37242373337138,8.599281480559148,101.0,1
19.599985122680664,995.3919649124146,917.8334474563599,2.2764034822623977,927.1002982678898,941.3139730739593,2.1298288018275278,72.2155579938675,8.398110572396812,101.0,1
19.724907875061035,994.111180305481,919.1349744796753,2.3297221416175775,927.4132416382994,939.1251333535342,2.1934535609094468,69.6291711443791,7.807614554813723,101.0,1
19.841559648513794,992.9797053337097,919.3309545516968,2.381708942222486,926.0473412252268,941.566381140318,2.264875847020545,70.52911144150688,6.694043262521379,101.0,1
19.983250856399536,991.1653995513916,920.7581281661987,2.443430936619583,926.2838964232491,948.0374365748245,2.3214113790495654,70.38302434124358,6.991205666815583,101.0,1
20.799911737442017,975.9543538093567,925.1075387001038,2.8014398899745903,907.1452996500201,941.7663757198861,2.704626355499907,70.79691225720363,5.547006925143643,101.0,1
21.116618633270264,920.4122424125671,948.4082460403442,2.8373338889187036,853.9187209967778,965.5395884735293,2.74312595349299,68.66492032934347,5.3977170965343895,101.0,1
23.258240461349487,551.8384575843811,1030.3083658218384,3.0238608221656125,504.54560989172256,1078.1853356920756,2.9342614816046684,67.29649089541444,5.133664061297427,119.0,1
23.549957990646362,498.4773099422455,1037.5492572784424,3.0464319822204997,438.2207977575113,1088.8578049998328,2.9634932334154134,79.14173570213892,4.752040264627147,119.0,1
23.849950790405273,444.40504908561707,1042.9177284240723,3.0700479662766904,385.34019311678355,1099.7939354274415,2.9789175623929456,81.99731784460488,5.221387527861185,101.0,1
24.133323669433594,392.6849663257599,1047.3703145980835,3.0822374705668567,328.065506495036,1102.4027910689772,3.005696636737662,84.87784195733305,4.385466738825008,101.0,1
24.40832495689392,346.7421531677246,1054.279088973999,3.109648201071822,276.9320626950059,1112.4912623701882,3.02136620141731,90.8961267784121,5.058185987178923,101.0,1
24.691657304763794,293.13817620277405,1054.807186126709,3.1200532027793524,226.49497967381873,1115.9908544695734,3.0478188642230086,90.46964637648689,4.138722735197614,101.0,1
24.949861764907837,246.48576974868774,1055.6650161743164,3.130832189778002,177.96935279884343,1125.622019205671,3.0529701703357772,97.92079281119955,4.461165098405043,101.0,1
25.224873781204224,195.87889313697815,1056.0835599899292,-3.13821188595113,122.98043388890753,1134.4857391996898,3.061918866606614,107.05646671538355,4.758675449170349,101.0,1
25.50828456878662,144.63239908218384,1055.180549621582,-3.123265568738409,73.57367560277379,1144.7888664632653,3.0760742493987827,114.36342347850015,4.803992653339598,101.0,1
25.92490839958191,103.13637554645538,1054.4624328613281,-3.036523071467327,35.62278000121838,1147.5421568326792,3.135601462664651,114.98661051630644,6.363313565088256,101.0,1
26.024930238723755,98.64956140518188,1054.9299716949463,-2.9906130229469507,21.12944843585475,1145.616315292639,-3.1037269565363874,119.30373351197363,6.4809509987978,101.0,1
26.166592597961426,96.46927565336227,1054.1695356369019,-2.92667554941163,16.699219081368085,1144.4415549595808,-3.033622396664296,120.46700543341016,6.127602979808046,101.0,1
26.283244609832764,93.71510148048401,1053.273320198059,-2.876773098440018,21.20949114969353,1141.8517174294698,-2.9688170742387814,114.46919229874042,5.273731342873437,101.0,1
26.408327102661133,91.37745201587677,1053.8514852523804,-2.8101155567629563,19.21627594669907,1139.7980598372556,-2.895447424760168,112.22321067658142,4.889155894207675,101.0,1
26.50833010673523,91.2347286939621,1052.1414279937744,-2.7833805839660157,14.20022744925687,1137.6962076337552,-2.83522613936503,115.12573431368922,2.970531510875228,101.0,1
26.666586875915527,87.24988251924515,1050.187587738037,-2.7064586213843094,7.513223646785343,1131.8549085065827,-2.7713817556581057,114.13801316676025,3.7198215866496747,101.0,1
26.783207654953003,84.95510369539261,1049.377202987671,-2.654042897709433,12.790720015495248,1126.9198963056178,-2.715915334608098,105.92718045384107,3.545029502483006,101.0,1
26.908299446105957,83.43133330345154,1048.0974912643433,-2.597294084630018,2.4832250617691676,1119.6201545500735,-2.652102230991587,108.0189223765497,3.1402754694532056,101.0,1
27.041568279266357,80.84616810083389,1046.3635921478271,-2.538503499780486,-4.53684662670815,1120.4055881418649,-2.589722634654689,113.01538114232399,2.934640258603163,101.0,1
27.166592121124268,79.60966974496841,1044.6723699569702,-2.47935971293452,-10.586716883945952,1120.7413440660505,-2.5365158358363553,117.9910038219886,3.2748046156061936,101.0,1
27.28326940536499,77.88649946451187,1043.22350025177,-2.4253903877624023,-8.808798819405768,1120.4431172685202,-2.4838533409495556,116.09885441618715,3.349680475494784,101.0,1
27.399896383285522,75.13796538114548,1040.6153202056885,-2.3755200189262706,-17.754171769237107,1118.1796747667897,-2.4309484276928366,121.01726423467734,3.1758138874501625,101.0,1
27.541555404663086,72.51928001642227,1038.353443145752,-2.316794323115352,-18.360966367172324,1113.965932222621,-2.374942787774877,118.2221116675831,3.3316616101564134,101.0,1
27.666597366333008,71.85333967208862,1035.9526872634888,-2.251081315121343,-12.736258587599394,1112.0580379921857,-2.3358075306575623,113.78675029753417,4.8544545643411166,101.0,1
27.783252000808716,70.08882611989975,1033.9128971099854,-2.2060216848397394,-20.726372223278716,1109.4889540381466,-2.272473922278695,118.14880714979529,3.807432744453392,101.0,1
27.924896240234375,68.28813254833221,1032.044529914856,-2.140908276080915,-26.816938174107474,1109.1697439676154,-2.207969849847284,122.44702168613259,3.842345144318178,101.0,1
28.04155707359314,67.95629113912582,1030.2940607070923,-2.0846840812745695,-27.47049444860711,1110.8193522814408,-2.158715679892067,124.86230011793394,4.241698151389149,101.0,1
28.15831446647644,67.38042086362839,1028.4372568130493,-2.0324400781093077,-31.169492609738374,1107.7275879712818,-2.1039549295706963,126.48731976285308,4.0974991612425535,101.0,1
28.258254051208496,66.94541126489639,1027.0159244537354,-1.9837966676420058,-29.384263043963394,1111.4433489844616,-2.054841886532832,128.09135866772,4.0705911970274595,101.0,1
28.38325071334839,66.4793848991394,1025.1812934875488,-1.9262158586765443,-30.52423263436605,1106.526551035179,-1.9939421065729472,126.59681172950954,3.8804281667206566,101.0,1
28.483278036117554,66.61800295114517,1023.7911939620972,-1.8773013031808952,-31.955766303328836,1104.1870638718435,-1.9416847806550481,127.20174481342283,3.6889015296445704,101.0,1
28.61657428741455,66.12807512283325,1021.7481851577759,-1.8143673777950822,-21.67698248147707,1104.1655789314057,-1.8856898500099535,120.42572373597679,4.086476642351207,101.0,1
28.74154543876648,66.80653244256973,1022.2486257553101,-1.756867731024372,-27.775904941205752,1094.7750397967338,-1.8114051517766423,119.18858248659492,3.124764034634273,101.0,1
28.941517114639282,59.949323534965515,985.3519797325134,-1.7218696366348671,-43.57301226322551,1059.7329071231645,-1.7576516018150456,127.47312018071392,2.050155587508297,106.0,1
29.241543292999268,49.74052309989929,927.9718995094299,-1.6948739153091374,-52.08449539980165,1017.2782809016841,-1.7292018664719546,135.4398912796492,1.9668467209606306,132.0,1
29.54153084754944,44.1400408744812,875.3790259361267,-1.6675288138641002,-56.760512226819024,968.7031319352911,-1.7036949369585805,137.4420255114555,2.072166214664338,132.0,1
29.841506719589233,38.74082863330841,822.3549723625183,-1.6366837366878855,-71.26783825959856,898.5691316488289,-1.6701257981295345,133.8301343766556,1.9160889788236772,101.0,1
30.133248329162598,35.04971042275429,769.8282599449158,-1.6129424188056842,-73.93530580607862,856.4330201447317,-1.6599897069000233,139.20530971075274,2.6956110453417166,101.0,1
30.43328332901001,33.77018868923187,717.303454875946,-1.589987004991368,-84.72504474985294,794.0183826189296,-1.6406983979326368,141.16054861891973,2.9055487887642166,101.0,1
30.71654462814331,32.640401273965836,670.3619360923767,-1.567052599790878,-92.65594184570415,743.2088124512719,-1.6208673897532782,144.9339194060874,3.083360340228517,101.0,1
