time_stamp[s],x_true_pose[mm],y_true_pose[mm],theta_true[rad],x_pose[mm],y_pose[mm],theta[rad],p_err[mm],a_err[mm],num_particles,valid_pose
6.541824102401733,263.61826062202454,17.389681190252304,0.05143338916596296,303.96191948484665,76.09100582726427,0.4553598709554193,71.22819894241067,23.143282640103752,1000.0,1
6.866878271102905,321.5300440788269,20.304854959249496,0.05051310600302891,373.11599114072004,91.27806089373323,0.43923243972411835,87.73999028317178,22.27197723735581,1000.0,1
7.183459520339966,373.1708526611328,24.54948239028454,0.05167007624341461,418.85463447112977,130.97523717958526,0.40580911377422874,115.81644616778644,20.29067221134071,1000.0,1
7.525121688842773,430.76232075691223,24.891449138522148,0.05273072876947049,472.0064603314357,137.3341947165682,0.3982885053783141,119.7683183582869,19.799002177611264,1000.0,1
7.825126647949219,480.3818166255951,27.363093569874763,0.05192318249068521,528.3427891661618,154.91783655307225,0.3691740686150267,136.27350198973593,18.17713682171026,1000.0,1
8.125106811523438,531.4783453941345,30.17108328640461,0.05249586350815664,565.985515850451,177.65834176467732,0.33456833192218155,151.47024865080965,16.16156195696085,1000.0,1
8.425171375274658,582.6510190963745,32.607462257146835,0.053563354128796314,606.5867360559414,190.00444765131806,0.29588975753872565,159.20656254545995,13.884280179973551,1000.0,1
8.716817617416382,633.677065372467,35.84698587656021,0.05433589212147467,642.6743772596844,198.11020615401824,0.25160690790912466,162.5124742166174,11.302796624890975,1000.0,1
9.016845703125,682.6022267341614,35.15799716114998,0.0463600083753511,673.6493881864255,191.29126370151198,0.19093827361020171,156.38973827788558,8.283724407279937,1000.0,1
9.31684160232544,736.2686395645142,37.7446785569191,0.04227801714965681,706.0968777320879,193.3549475848202,0.15337356566183852,158.5083311343868,6.365306052438903,1000.0,1
9.616911172866821,787.6855134963989,39.50135409832001,0.040266540160738475,741.6091288828986,183.22068414443333,0.11085697905431756,150.924746307406,4.044534222578218,1000.0,1
9.975182056427002,804.8896193504333,40.20917788147926,0.12755431194828412,732.7364704448836,174.45524465828746,0.14326718431194213,152.4076223226046,0.900281270465354,1000.0,1
10.116822957992554,805.9633374214172,40.794070810079575,0.17763419805341474,734.0179731589344,161.20989672964518,0.18341923962886,140.27154583432974,0.3314584665807263,1000.0,1
10.275135040283203,808.4620833396912,41.359517723321915,0.2345880972637492,726.0969053921002,148.67725113153725,0.21931724695868032,135.28162640290478,0.8749552720565131,1000.0,1
10.416788101196289,809.9896311759949,41.9149324297905,0.28807214413190496,721.457755055883,144.38637011590757,0.26107612581956713,135.41893748957938,1.5467579129548412,1000.0,1
10.575145721435547,812.3740553855896,42.37750917673111,0.3455189145738116,718.4632633048258,139.14662530520692,0.31391594107570264,134.84620389733962,1.810717001505436,1000.0,1
10.71679162979126,813.7264847755432,42.98701137304306,0.40045986392469113,718.2120112849905,136.1559630530204,0.36549166350293666,133.4296376496746,2.003530301334116,1000.0,1
10.875109195709229,815.7243132591248,43.871358036994934,0.45862493852747954,717.1450371116762,130.36109231116708,0.4159849196404219,131.14247145975187,2.443093120586521,1000.0,1
11.01677393913269,816.7369365692139,44.82490196824074,0.5137889889930923,718.0327258968184,134.03629248750133,0.4740776834417191,133.0458319634277,2.2752902070481236,1000.0,1
11.175156116485596,818.2365298271179,45.778024941682816,0.5735720762388502,721.2420793039076,129.1295248150427,0.5297376691783485,127.88821667158473,2.5115265220252034,1000.0,1
11.316785335540771,819.0029859542847,47.02579602599144,0.6297498003741236,723.7374465610447,133.7101211515625,0.585458725341924,128.80099075069515,2.5376916694422964,1000.0,1
11.450148582458496,819.8435306549072,47.89086803793907,0.6791563083977542,724.8638081949939,134.39415699660262,0.6369981157273977,128.4677651367385,2.415486511910788,1000.0,1
11.591870784759521,821.035623550415,48.75531792640686,0.7346502082333296,725.5482391159338,132.2063335846989,0.6923357442526175,126.8144810364294,2.424440198453147,1000.0,1
11.750128030776978,821.8498229980469,50.08639395236969,0.7985176270368698,727.7064082412343,133.42706545207082,0.7466198428496789,125.73245431508262,2.973524000006822,1000.0,1
11.875110149383545,822.9328393936157,51.05818808078766,0.8506454692314805,729.483987343042,134.58843759331336,0.7997285497786711,125.33950108882199,2.91732459045354,1000.0,1
12.03352427482605,823.4748244285583,52.25231498479843,0.9144412767827342,731.8227472755958,134.58133318917558,0.8553765405972831,123.19971787690612,3.384160101479985,1000.0,1
12.15019941329956,824.0174055099487,53.383633494377136,0.9622091052433006,733.599996379597,135.1993938040316,0.9063994765814368,121.93902783314391,3.1976561785171467,1000.0,1
12.275175333023071,823.8924145698547,54.17225509881973,1.0128691982461342,737.6376332020786,135.661035184382,0.9589710110759465,118.66047610150562,3.088138648257916,1000.0,1
12.391824960708618,824.7349262237549,55.143699049949646,1.0598613163695403,737.6927461366579,137.54999661040827,1.0137919419547954,119.86300092996785,2.63958071877286,1000.0,1
12.533530473709106,825.1734375953674,56.23131990432739,1.1199590298447257,738.257223139966,137.6184709291922,1.067192068342067,119.0726529779256,3.0233241918316356,1000.0,1
12.66692066192627,825.5692720413208,57.49721825122833,1.177134870918319,742.6569265008612,139.91093307142435,1.1255286330985197,116.9037100929015,2.956819623622907,1000.0,1
12.908457517623901,841.7205810546875,96.35299444198608,1.2062000168486395,757.6695779842786,172.56444257472705,1.17272020619436,113.45816825434542,1.9182518493873437,1000.0,1
13.225264072418213,860.3535890579224,143.9090371131897,1.2267875107082375,780.0708573511449,222.58086920956123,1.1965015978829572,112.40362171968518,1.7352549835896964,1000.0,1
13.5502028465271,877.8147101402283,195.13320922851562,1.2466486694264052,800.5334810522405,271.5835997483358,1.2141034365211658,108.7062582374311,1.8647044887405062,1000.0,1
13.866847038269043,895.7427144050598,251.0855793952942,1.267193096022983,820.8661633076393,322.67105644051566,1.2282739147164767,103.59043598728866,2.229904830967253,1000.0,1
14.208451271057129,913.0544066429138,304.27053570747375,1.2825983412552424,840.2322378739663,375.960829907148,1.2460242992085335,102.18887682448091,2.095538249010434,1000.0,1
14.525145053863525,927.6794195175171,357.06111788749695,1.30359335415002,857.5333865992582,430.21917170875975,1.2725983437423711,101.3536717296628,1.7758832823223403,1000.0,1
14.841915369033813,943.1482553482056,411.96298599243164,1.3190441412460439,870.4621878902146,480.63329845743414,1.2892240800066463,99.9943809248734,1.7085636538391322,1000.0,1
15.141901969909668,952.6515603065491,457.0530652999878,1.3468354270394338,887.5357286174873,529.5942702527472,1.315862243637519,97.47973098319703,1.7746326870143776,1000.0,1
15.466906785964966,966.3437008857727,514.1662359237671,1.3609679201439417,900.8994864871668,582.4250588535425,1.3316640276605949,94.56327038554205,1.678989362600912,1000.0,1
15.758512496948242,977.6189923286438,566.0400390625,1.3769561456468944,915.0276660008428,635.6029799729112,1.3493705280837598,93.57711728611127,1.5805394616295716,1000.0,1
16.05847692489624,987.1083498001099,615.2752041816711,1.3882038236366714,928.8359812979182,687.0225531474364,1.3623564774455006,92.4302494558492,1.48094384836763,1000.0,1
16.358511447906494,998.4735250473022,667.1175956726074,1.4084845743476369,938.8341922525813,736.0532456891011,1.382997645412693,91.1535729381794,1.4602934607221354,1000.0,1
16.658461570739746,1005.44273853302,721.7670679092407,1.418347698987421,946.535959594353,785.3585561368168,1.3952145114232488,86.68267404693356,1.325434014111592,1000.0,1
16.9584321975708,1014.8859024047852,774.5287418365479,1.429745326404884,953.6061323674539,836.9057152631142,1.4036267868040215,87.4419637799081,1.4964820861747286,1000.0,1
17.258443117141724,1022.9613780975342,827.993631362915,1.4435852617193548,960.8647296724852,885.6752729745131,1.4171303050046133,84.75355759278179,1.5157573669559605,1000.0,1
17.55843949317932,1028.7220478057861,878.2409429550171,1.455698337357505,967.777149670184,933.1513179792614,1.4259578757332532,82.03310242860545,1.704002931840418,1000.0,1
17.91695237159729,1032.591700553894,907.3308706283569,1.5460751008236964,971.7224393680308,958.8653851696141,1.4772502126054667,79.75508226010356,3.9433756203642223,1000.0,1
18.01698350906372,1032.544493675232,909.3616008758545,1.5856026777794299,972.1571160302839,961.2441919635093,1.5318307411197651,79.61431175864278,3.080905026843579,1000.0,1
18.133646488189697,1033.170223236084,912.3659133911133,1.6347788623843285,973.4088400337192,961.455631572326,1.5776377368136065,77.33836921845952,3.273945331829434,1000.0,1
18.258556127548218,1032.8176021575928,914.1655564308167,1.6906181867337144,973.8695860495887,961.7343325998905,1.6292220086998126,75.74732384244973,3.5177418795763886,1000.0,1
18.375280141830444,1032.668948173523,916.3398742675781,1.7406399499771088,971.786708575143,968.7277581431983,1.6889913740039335,80.31897332187461,2.959245421123733,1000.0,1
18.533647775650024,1032.6189994812012,919.284462928772,1.8125980854328367,969.603435569075,968.6575117832034,1.7515086834140887,80.0541020082377,3.5001649086522324,1000.0,1
18.633628606796265,1032.1087837219238,921.0274815559387,1.8486562417888608,969.1976361753327,969.8829207903356,1.803694922420159,79.65341441780635,2.5760938411664123,1000.0,1
18.77528738975525,1030.8187007904053,923.5732555389404,1.9067807346004206,969.9293916093267,968.9567472744824,1.8507759331475193,75.94188103187192,3.2088387557193867,1000.0,1
18.916964292526245,1029.4692516326904,925.5566596984863,1.9683830799609745,967.5693204239872,970.8640997144998,1.9107467180196014,76.7096187218191,3.302320285729123,1000.0,1
19.033676862716675,1028.356671333313,927.3380637168884,2.0150329481622156,965.5539697314397,972.8210950541614,1.9667694790001755,77.5427976547229,2.765293087644695,1000.0,1
19.150256395339966,1026.788592338562,929.9988746643066,2.071554782477257,963.3278770067342,972.6731136567645,2.0215075032030847,76.47452558867363,2.867497878522637,1000.0,1
19.25028133392334,1023.5426425933838,936.5315437316895,2.111158182790299,962.4496567066544,972.3663903204259,2.070128850526073,70.82717807871771,2.3508075749800814,1000.0,1
19.41704535484314,1022.9207277297974,935.6441497802734,2.1860584461155357,962.0560875561548,972.5807879642826,2.1225557565006237,71.19564357320883,3.638436102663701,1000.0,1
19.517009973526,1021.8279361724854,937.9318356513977,2.2229196303936534,959.8113539595821,971.609323051246,2.1690873813206664,70.57074200358619,3.084360673579193,1000.0,1
19.650323152542114,1020.7608938217163,938.6714696884155,2.28649025619779,959.2662647487045,971.6514334468735,2.2297284697310054,69.78013624475453,3.25221080216954,1000.0,1
19.79197335243225,1018.9770460128784,940.2244091033936,2.345253341587369,953.976759122769,975.4929760838611,2.289113868919052,73.95207307880058,3.216554847984595,1000.0,1
19.916953563690186,1017.6020860671997,940.4728412628174,2.4064800756916878,952.7133556768533,975.6082248792251,2.344424996970575,73.79053132715059,3.5554941080718403,1000.0,1
20.033647060394287,1016.1226987838745,941.6348934173584,2.4536055771275977,950.1241992584379,975.7830297324869,2.3976188469596895,74.30946880045403,3.2078033473589045,1000.0,1
20.17534327507019,1014.9309635162354,942.2793388366699,2.5225457295280793,948.6158369320042,976.3011250260051,2.4551093500453827,74.53306614782089,3.863819930001137,1000.0,1
20.291953563690186,1013.3715867996216,943.0180191993713,2.573857008464525,948.9286296343925,977.277248990631,2.512629211430838,72.9834882291186,3.508094358913872,1000.0,1
20.40862202644348,1012.5659704208374,942.6416158676147,2.629486603922183,949.8312531525097,974.0322362028198,2.573255544375866,70.14995221499446,3.2218023895527894,1000.0,1
20.533650636672974,1011.319637298584,943.3549642562866,2.687445827505622,949.496042148992,971.777720780763,2.6259885843953166,68.04417686819582,3.521240650729964,1000.0,1
20.63367009162903,1010.2262496948242,943.7150955200195,2.733982213695602,948.9898954965072,972.081975593313,2.677311006574683,67.48756152502737,3.247020987940383,1000.0,1
20.7919442653656,993.8095808029175,949.7016668319702,2.768816606836032,933.3625451578679,976.9325230596588,2.730092882838939,66.29753878664685,2.218705952062896,1000.0,1
22.667073726654053,678.0712604522705,1042.859435081482,2.938162509812706,623.4348867694752,1078.450554104441,2.8990518871188726,65.20629634101668,2.2408736144852304,1000.0,1
22.967034578323364,627.0999312400818,1058.2890510559082,2.974973291923196,569.0847345020873,1093.3401836785029,2.9292233081867685,67.7815974337794,2.621280980889463,1000.0,1
23.56708073616028,520.6369161605835,1074.5552778244019,3.024475594314308,462.4303632596437,1110.550278061943,2.9751600778928347,68.4371451969651,2.8255709554585153,1000.0,1
23.858680963516235,464.3385410308838,1080.3313255310059,3.0426915306194813,409.2413996015475,1119.347720021811,2.9977417944553015,67.51276940510154,2.5754301724340656,1000.0,1
24.158709287643433,411.97168827056885,1086.4112377166748,3.058993580528661,355.16128723870526,1126.0615341195737,3.018443395331718,69.2789121611974,2.3233544702587126,1000.0,1
24.442047357559204,361.49924993515015,1090.9929275512695,3.078629509263758,302.4945229009368,1131.9856309114089,3.0284625905243567,71.84677822390096,2.874352714943459,1000.0,1
24.717029333114624,312.1959865093231,1097.1089601516724,3.0986705798006278,250.43322436337922,1134.8464710330497,3.055648309738181,72.37926854713659,2.464994499650231,1000.0,1
25.000375747680664,260.7300281524658,1098.8839864730835,3.1078748603532738,201.90034987611435,1138.9263814330948,3.0654215279634975,71.16406705797918,2.4323967722002147,1000.0,1
25.275312185287476,210.30548214912415,1100.7812023162842,3.1204950495832575,152.73540452954785,1142.825025880507,3.0760360138004104,71.28812619941368,2.547315111578248,1000.0,1
25.542137622833252,160.51062941551208,1102.3021936416626,3.1353480031573433,100.75242327799842,1146.4514117826914,3.088196984837247,74.2980259713387,2.7015543494855536,1000.0,1
25.91711735725403,128.97267937660217,1103.135108947754,-3.0522696503925375,70.47869466408544,1147.2480310059666,-3.134736993558583,73.26319771933306,4.725030711071447,1000.0,1
26.017081260681152,125.97915530204773,1102.6736497879028,-3.0096555764716295,71.99492267423156,1145.0314463141474,-3.073633582556329,68.61836706722849,3.665669730315582,1000.0,1
26.175477504730225,122.41575121879578,1101.5576124191284,-2.9403390997331345,68.81986172500017,1142.9876213964628,-3.0109957018990756,67.74189999175665,4.04832509884334,1000.0,1
26.300420999526978,119.98581141233444,1101.1021137237549,-2.885242158845787,66.78893949234102,1144.990801325993,-2.955784321652086,68.96465820635262,4.041768206525651,1000.0,1
26.417076587677002,117.78110265731812,1100.2655029296875,-2.8350986368307485,65.12157168728642,1145.2385744289506,-2.901666438423752,69.25029503230698,3.814054082743343,1000.0,1
26.55875587463379,115.554578602314,1099.1822481155396,-2.7681210422738283,63.964811972855735,1144.04548797135,-2.843053034251194,68.3682258892385,4.293286890811209,1000.0,1
26.675450563430786,113.29368501901627,1098.2266664505005,-2.7171126920114292,62.25402546812109,1143.2105392117714,-2.784431086488199,68.03378319389199,3.8570598871156947,1000.0,1
26.800392627716064,111.29675805568695,1097.5894927978516,-2.656508565536432,60.50703232792848,1143.4955261620773,-2.7267155413808313,68.46137698540937,4.022563408260997,1000.0,1
26.892051935195923,109.89096015691757,1096.824288368225,-2.617527132201483,61.173589785518324,1141.349759345877,-2.6802734231280594,65.99924046294626,3.595097650192837,1000.0,1
27.058782815933228,107.89743065834045,1093.8602685928345,-2.5435928170506776,59.31630727303073,1141.7586328290956,-2.6241058052042767,68.2230081855691,4.613054417188022,1000.0,1
27.15883731842041,106.50219023227692,1092.670202255249,-2.4991764583889085,55.87860875624992,1140.5241847134378,-2.5709205682899903,69.66168702069007,4.11063470225473,1000.0,1
27.275493144989014,105.17263412475586,1091.3896560668945,-2.4439667118498547,54.405336192472895,1139.2709171045362,-2.51433579576534,69.78491024498038,4.0318515165592235,1000.0,1
27.40040922164917,103.34987193346024,1089.802861213684,-2.387878508049719,50.42043774106407,1137.3123669609524,-2.4531850530078567,71.12438499050042,3.741789400682662,1000.0,1
27.533778429031372,102.33152657747269,1087.993860244751,-2.3247661774124277,50.89345451891335,1135.5698361584791,-2.3968491421964626,70.06674490259401,4.1300496569153395,1000.0,1
27.658740520477295,100.8419394493103,1086.3816738128662,-2.265733091620519,48.27475321641188,1135.4073394460308,-2.337503085807112,71.88062993059455,4.112117762570221,1000.0,1
27.775453329086304,100.19540786743164,1084.761619567871,-2.213226141446937,46.044135685838846,1132.2354298309156,-2.279976445401742,72.01474112830299,3.8245106978257453,1000.0,1
27.892102479934692,98.75615686178207,1082.939863204956,-2.159859872303543,43.80253114503011,1131.3184411369002,-2.2252651609391685,73.21466917315175,3.747446996656298,1000.0,1
28.03379797935486,97.91409224271774,1080.8945894241333,-2.092845864149732,45.931413822002376,1131.6654934232383,-2.167172147425532,72.66280718963344,4.25858233859715,1000.0,1
28.150423765182495,96.88271582126617,1078.9376497268677,-2.040791258938589,46.83906246893995,1131.1789212169015,-2.1116905812125015,72.34305555990298,4.0622319366330695,1000.0,1
28.275402069091797,96.5600460767746,1076.9634246826172,-1.979179083345641,45.88639733721238,1128.003141997885,-2.0529845888558462,71.92267667573965,4.228743970564297,1000.0,1
28.392136812210083,95.32857686281204,1073.2475519180298,-1.9249342491147041,46.63376836838827,1126.6233216739245,-1.9875170903231434,72.25065516203219,3.5857326711809785,1000.0,1
28.55052375793457,96.23390436172485,1074.8382806777954,-1.8563869869260003,43.14722764256229,1121.7146521522561,-1.9333841587687908,70.82082636976577,4.4116129810354305,1000.0,1
28.650546312332153,94.72383558750153,1071.6849565505981,-1.806141079711642,41.925934245568975,1119.1327422834258,-1.8770880170927742,70.9852854967899,4.06496008131781,1000.0,1
29.067164182662964,80.89007437229156,1001.8085241317749,-1.7424899355971586,28.61543086428506,1052.6109317129296,-1.7841179046242406,72.89391586360918,2.3851069349531095,1000.0,1
29.367090940475464,71.74055278301239,947.0030665397644,-1.7138716744162799,16.603970361686837,1001.131821718466,-1.758659644816412,77.26554768005879,2.566161676884429,1000.0,1
29.69214129447937,63.921913504600525,890.6352519989014,-1.6697991185823267,7.6776210044395805,949.1047451473354,-1.723474592656132,81.1301551081867,3.0753781277929115,1000.0,1
29.992184162139893,59.16569381952286,837.8865718841553,-1.624704097154481,2.847414673739231,898.1487976563552,-1.678648529139773,82.48202483548768,3.0907882809877547,1000.0,1
30.29211187362671,57.22010135650635,782.4381589889526,-1.5959707949678261,-0.3491963583062381,841.739144403892,-1.6448835992321642,82.64884095109612,2.8024972484960675,1000.0,1
30.583871126174927,55.47545850276947,736.1916899681091,-1.5722724059706061,-0.5089585945360005,789.1531942851038,-1.6288207833194406,77.06604892716453,3.2399833604013972,1000.0,1
30.883888959884644,55.064186453819275,684.4216585159302,-1.5559849227062412,-1.092230939296617,733.8319867633948,-1.6103987611231507,74.79922293681963,3.1176832883957353,1000.0,1
31.14221978187561,54.3208010494709,642.3835158348083,-1.538324372445322,-3.500950720644915,680.0766898852734,-1.5906072804656577,69.02267995205301,2.9955899702359203,1000.0,1
