time_stamp[s],x_true_pose[mm],y_true_pose[mm],theta_true[rad],x_pose[mm],y_pose[mm],theta[rad],p_err[mm],a_err[mm],num_particles,valid_pose
0.18327665328979492,-1.645155600272119,-1.8584690988063812,0.021944888521936254,-497.3170331996577,15.53840840076657,-0.0493781951326779,495.97707768568847,4.086511675267898,377.0,1
5.224982738494873,49.91380497813225,-1.886516809463501,0.0476205611423629,-438.50793017812407,18.534212908480495,-0.05154024907810079,488.84844029132535,5.681495918730287,388.0,1
5.424950122833252,82.3320597410202,-0.11082738637924194,0.10301290986609074,-398.96639049884146,18.808818073086687,-0.004993771277815334,481.67016846344603,6.188326988761029,343.0,1
5.641746759414673,115.59809744358063,3.463171422481537,0.17474399714869082,-364.02303170964376,21.489718313313816,0.04274206299581938,479.9597732341965,7.563153714523331,286.0,1
5.783385992050171,137.11202144622803,7.7266693115234375,0.23246557917997132,-325.7182852948254,30.407091550373895,0.08455692254141005,463.38568643296503,8.474541778839207,240.0,1
5.92509913444519,159.87631678581238,13.999756425619125,0.3046570700522933,-292.7922522883553,34.91076382364046,0.11574619077833191,453.15130327303996,10.823796086503405,204.0,1
6.025064706802368,173.32881689071655,18.245894461870193,0.350810554782247,-263.7141630937076,51.88452498108432,0.1474303218437491,438.33562918940777,11.652828983763497,192.0,1
6.125034332275391,187.70892918109894,23.29055592417717,0.4113187493341987,-224.72744924912408,43.48993718578764,0.22569120160395875,412.9307221023765,10.635675046305993,144.0,1
6.225042104721069,201.79778337478638,30.00514954328537,0.4707329347045518,-203.52719179607968,47.69239998215402,0.25159628020104746,405.7107027493242,12.555605439667282,144.0,1
6.325010299682617,215.74488282203674,37.449028342962265,0.5357165886536712,-165.43098707895822,57.97551525625957,0.33675688535218323,381.728149944148,11.399551292350333,144.0,1
6.425053358078003,229.37850654125214,46.5252585709095,0.6022765731961871,-134.36207649555692,75.56779810082034,0.4170578075632144,364.8981787434739,10.612253557392073,156.0,1
6.500077247619629,239.31574821472168,54.00223284959793,0.654201371183482,-110.16385899458658,84.3256121251558,0.49793857909003597,350.7926783527013,8.953198481884707,132.0,1
6.600067615509033,251.94457173347473,64.26671147346497,0.7274084719332886,-91.2919794706532,92.12600862334368,0.5451100096083143,344.3653155011247,10.444932502945669,168.0,1
6.658393383026123,258.81969928741455,70.23752480745316,0.7725020922374365,-61.56676597695459,106.12640693800414,0.6042113504711433,322.390289843192,9.64234923433461,156.0,1
6.7417356967926025,268.11859011650085,79.308420419693,0.8374028934164355,-39.80646824476073,115.44112586769002,0.6415753088703977,310.03776216741414,11.220094106729267,156.0,1
6.816696643829346,275.23961663246155,88.07967603206635,0.8944413020873144,-24.32311415544727,139.98536396266672,0.7162328773708282,304.02636418024343,10.210590609929525,119.0,1
6.9000256061553955,282.7582061290741,99.649079144001,0.9601741677615094,-6.419502486601609,138.0232518408478,0.7512814726495708,291.71274276311635,11.968669801027167,106.0,1
6.983368396759033,291.0688817501068,109.94817316532135,1.0299023793730855,22.089385272619058,152.94216663392788,0.8234176509517694,272.39392981426994,11.830703472446409,106.0,1
7.041763544082642,294.94163393974304,119.86276507377625,1.0759132449575057,38.261970134732906,165.25144700178538,0.8844362025329939,260.66181588068287,10.970826404571937,132.0,1
7.116699934005737,300.9163737297058,130.367711186409,1.1394686556905687,52.66961651413757,166.61105729399787,0.9536735647733856,250.87852160980174,10.645274563804003,119.0,1
7.2000627517700195,306.1799108982086,142.71263778209686,1.2071262309087143,62.46948851341808,179.11539935617105,1.0455287796401476,246.41414535126003,9.258851937759864,106.0,1
7.275096654891968,310.0833296775818,154.0718823671341,1.270962002063893,70.73704449709048,184.74849310535257,1.1161397628143015,241.30416216071626,8.870660883766273,101.0,1
7.341711044311523,312.97847628593445,164.28455710411072,1.3274959150701808,81.28948861275634,204.2067529814747,1.1942876287704507,235.10331501850987,7.632272601144883,101.0,1
7.416734457015991,315.4390752315521,175.30998587608337,1.3909779381839047,85.45004541290851,209.45194927448762,1.2324998019973852,232.50941379139667,9.080128348587055,101.0,1
7.500092506408691,317.6800012588501,188.6686235666275,1.4626531036969812,89.2996232574835,233.19535192720204,1.3189575064479162,232.68052474271127,8.233151256983106,101.0,1
7.57512903213501,318.7793493270874,201.1280506849289,1.5271839275520482,99.00146195429431,265.2014380869507,1.379184788264115,228.92732198498652,8.479726052767377,101.0,1
7.641754150390625,319.1823363304138,212.5522643327713,1.5818384262471445,108.35322606004925,274.9959645321678,1.4684902814928573,219.88208074326033,6.49437031005858,101.0,1
7.716728448867798,318.5373544692993,225.65987706184387,1.6441020910234374,108.72051503750538,284.57305122006795,1.5346601984517314,217.93087940570615,6.270558546282909,101.0,1
7.800076961517334,317.315936088562,240.54290354251862,1.7161181875606148,105.01105430076487,299.40621761608656,1.601229562399207,220.31398633462655,6.582633335809186,101.0,1
7.875107526779175,316.38118624687195,248.24298918247223,1.771952936303739,111.07005901235792,304.9968888936363,1.6658062685848198,213.01094830719776,6.081756069671603,101.0,1
7.958435297012329,313.4932518005371,257.7824890613556,1.8475062157621365,110.79116470874614,321.9267954692513,1.7133099390068514,212.609097067642,7.688880284447392,101.0,1
8.016785860061646,310.9646141529083,267.8494453430176,1.8966014400936635,109.50926184796178,332.5727253408256,1.7730372373406937,211.5971690405729,7.079707316643955,101.0,1
8.075100183486938,306.7927360534668,279.9515128135681,1.942363142727682,110.0243678178983,337.97891840250225,1.820101888187419,205.14621745835566,7.005053883131747,101.0,1
8.158415794372559,301.49388313293457,292.73366928100586,1.9985304547145828,106.04435485871628,349.92348668969913,1.8796027154319839,203.6447723803735,6.814057527925127,101.0,1
8.25843095779419,296.50813341140747,306.8787455558777,2.074975342504728,101.59813671198462,366.762823532094,1.9405491783597488,203.90196077632646,7.702051861640135,101.0,1
8.31674575805664,290.2079224586487,315.2161240577698,2.118741247043799,96.82490358071806,382.2474508260011,2.0074453683070295,204.67093286212256,6.376784128816705,101.0,1
8.400092363357544,281.9769084453583,327.90201902389526,2.178542515193845,91.92302434951385,394.0693074978225,2.0575124495104062,201.242612097708,6.934511957852186,101.0,1
8.475151777267456,274.8488187789917,338.57372403144836,2.2251326132159757,85.40377357142218,402.2565842950165,2.1080720462198363,199.86228219713496,6.707076436287201,101.0,1
8.575129985809326,267.0291066169739,351.3827323913574,2.289972312245642,79.56911462951169,423.5184858740146,2.1655218394713174,200.8601890033216,7.1304868483765524,101.0,1
8.675145864486694,256.2054693698883,362.8780245780945,2.355114384529189,74.4202297197302,433.8675230612973,2.2279694534474856,195.15476486512458,7.284867937463315,101.0,1
8.75844430923462,246.05438113212585,373.42697381973267,2.403230876325829,64.27557847395744,445.8686526629644,2.2827607163892574,195.68170565861098,6.902431721631571,101.0,1
8.858428478240967,233.02686214447021,384.67150926589966,2.4558478074214207,56.436263627174334,465.29967033203917,2.334845464614015,194.12660776308877,6.932923554059529,106.0,1
8.95841646194458,220.1768308877945,395.063579082489,2.5057218028724173,39.50144177677707,474.1760527193451,2.3950766842357836,197.23686195881285,6.339498321603402,101.0,1
9.075100898742676,204.19447124004364,406.7288637161255,2.556071806621237,26.761772478891405,483.47930507190136,2.4530111328021937,193.32095809293978,5.904941643605605,106.0,1
9.191751718521118,187.0163083076477,417.29557514190674,2.601970044345656,7.70742288976626,493.71878508950516,2.504861484076321,194.91583673087635,5.563910658024704,144.0,1
9.358396053314209,161.51276230812073,431.89918994903564,2.653396168267666,-10.276982447911951,504.6836032746923,2.5613271760586223,186.57247178108267,5.275164677601058,132.0,1
9.516714811325073,134.54392552375793,445.90142369270325,2.6904578907616523,-41.912465744208106,523.5915161688904,2.6224739687671472,192.80199295720993,3.8951918050317516,101.0,1
9.833388090133667,82.07538723945618,467.36907958984375,2.735831399849382,-81.23019553680834,540.8904610549619,2.6809127974871263,179.0924534938164,3.1466041321144544,101.0,1
10.150171279907227,31.47384151816368,491.35181307792664,2.735721243082521,-126.35794412868867,562.7892150335459,2.682578457913836,173.24599550535842,3.044857301736076,101.0,1
10.475199937820435,-18.34237389266491,515.0468349456787,2.6918480847478854,-172.8605873729554,588.762145457809,2.6593319319896156,171.2011252913964,1.86303831905153,101.0,1
10.691796064376831,-51.86320096254349,533.5366725921631,2.63555392478191,-203.88481321782552,605.7905815606489,2.6009535234913312,168.31873916448384,1.982456963409168,101.0,1
10.850128173828125,-75.84305107593536,548.3267903327942,2.5754852306426823,-227.70242979039114,618.1295393708729,2.5610060496186784,167.13376282730397,0.829595963481334,101.0,1
10.966825246810913,-92.67112612724304,560.0530505180359,2.524504044169843,-245.63564095956457,628.4738347586418,2.507762494788617,167.56952740276813,0.959220122054128,101.0,1
11.10850977897644,-113.22950571775436,573.985755443573,2.4456959373315845,-262.00256683976534,639.2826894848497,2.4576982514723227,162.47188467794805,0.6876819446544835,101.0,1
11.208475828170776,-126.98668241500854,584.3722224235535,2.3940299667865017,-286.2996691755278,656.5619668732611,2.3942484144171905,174.90565157899124,0.012516127283100116,101.0,1
11.333463907241821,-138.2194310426712,595.0319766998291,2.31804993371776,-299.4574681160224,673.8352902009462,2.349442103236778,179.46494593101667,1.7986388231989732,101.0,1
11.408465385437012,-148.93785119056702,605.0428748130798,2.2669938840176425,-300.9135897194199,674.6766019365496,2.3005206540817618,167.16901942194943,1.9209424253795886,101.0,1
11.475178003311157,-156.37272596359253,613.169252872467,2.2317016299006243,-303.84926503124115,679.6065907815416,2.245642688325964,161.75057787784328,0.7987638097172597,101.0,1
11.566827774047852,-167.62420535087585,622.5250363349915,2.1651499588692773,-317.73336727335135,699.5692204516997,2.1783550086867582,168.72630737166392,0.756593622801656,101.0,1
11.650160789489746,-173.71860146522522,635.0411176681519,2.1064032508691093,-320.2814638146226,707.3041520929175,2.1172589369225574,163.40935947589807,0.6219849945816057,101.0,1
11.725125312805176,-181.544691324234,646.1586952209473,2.0551138607735804,-315.9069245399686,708.615030923872,2.0675020047921917,148.1688347263212,0.709788368266664,101.0,1
11.833451986312866,-190.0203824043274,663.2922291755676,1.9771920641364211,-323.59023171766097,724.6442388308589,2.005624721155697,146.9863045808336,1.6290712475475237,101.0,1
11.908487319946289,-195.53104043006897,675.4542589187622,1.9205324657081058,-330.90015357005524,732.2015057995853,1.9327974112621542,146.78231099440933,0.7027296162047191,101.0,1
11.966805458068848,-199.4311958551407,684.7925186157227,1.8758323506452104,-335.76455548952924,746.1075475359595,1.8736309739946728,149.48684798566396,0.1261295911944469,101.0,1
12.050147294998169,-201.39674842357635,700.4790306091309,1.8173713202443644,-336.1802570311067,760.3987340422639,1.8198889515348804,147.5024238854088,0.1442496473166396,101.0,1
12.125160694122314,-205.41290938854218,713.6520743370056,1.756230759355193,-326.2914081932899,764.6281459783911,1.7564526859912226,131.187542675656,0.012715459606038468,101.0,1
12.208467960357666,-206.97280764579773,727.3860573768616,1.693411620074627,-325.5944909448623,779.1452417237653,1.6865739803878792,129.42224272883053,0.3917678958818019,101.0,1
12.291798114776611,-209.12308990955353,742.0324683189392,1.6277544483998425,-323.9211932603971,797.4241735593827,1.639232794592696,127.4631144386294,0.6576607926405674,101.0,1
12.350180387496948,-209.3421369791031,752.6811361312866,1.581893363117492,-325.7626061378207,813.8175974146969,1.5788689655042247,131.49673964549024,0.17328521880965783,101.0,1
12.4252028465271,-209.4581127166748,765.725314617157,1.5208300072473133,-321.4845607635732,823.1581621106341,1.5186535848222749,125.89065506705977,0.12469981939233155,101.0,1
12.508533954620361,-208.34726095199585,780.3518772125244,1.4539717930504383,-321.4432813228125,837.9779791107106,1.478159455920677,126.93099481094565,1.385850998749962,101.0,1
12.583529472351074,-206.49459958076477,794.0787672996521,1.3953835517486821,-332.0678270527729,858.4353122401567,1.4125307473579503,141.10421798945586,0.9824619388963206,101.0,1
12.650217294692993,-203.50490510463715,806.4498901367188,1.343570113813757,-326.4079309550419,863.2345054352994,1.355005577966382,135.38702411159295,0.6552038327185636,101.0,1
12.725186586380005,-200.43328404426575,819.5345401763916,1.2846362724073224,-325.56487884867227,880.9314587436912,1.3002745610872637,139.3825585496758,0.8960079401678495,101.0,1
12.808502435684204,-195.66801190376282,833.6822986602783,1.2194349605733816,-328.17675992454963,892.3374653773011,1.2389780554805705,144.9103063437453,1.119736856805535,101.0,1
12.883507251739502,-190.65222144126892,846.5564846992493,1.1625215495506618,-315.8810530263913,907.0372562288292,1.1587947603907907,139.06899001930012,0.21352928999572124,101.0,1
12.95024061203003,-184.94373559951782,858.5003018379211,1.1117494340567011,-302.0889907448907,918.8672204887547,1.0926434891604864,131.784580548981,1.094690006162621,101.0,1
13.025240182876587,-182.04066157341003,866.1683797836304,1.05666881825476,-299.0331979125846,937.0712346434615,1.0385484297207825,136.80083474287488,1.0382217861341512,101.0,1
13.108565092086792,-174.40208792686462,879.8496723175049,0.9879703552553953,-293.51802973599854,948.3916037429826,0.9741390622320362,137.4285412736811,0.7924747154472208,101.0,1
13.183563470840454,-167.183518409729,892.3067450523376,0.9366641511200243,-286.9272228928616,951.8477231314346,0.9071568366217334,133.72988758672943,1.6906445855172536,101.0,1
13.241909980773926,-158.858522772789,900.3859162330627,0.9039851763478942,-274.5992892447423,959.1862294803855,0.8540149122084624,129.82065267706253,2.863085236343371,101.0,1
13.341946840286255,-146.27239108085632,915.0686860084534,0.833267731349452,-253.54606908443304,976.0409365597023,0.7867139817901466,123.39066954068828,2.667333370257213,101.0,1
13.425206899642944,-135.46781241893768,925.8489012718201,0.7807709625478414,-251.04159278061294,979.9153487547521,0.7374511504871277,127.5949820741921,2.482042400378815,101.0,1
13.525147914886475,-122.12797999382019,938.5414123535156,0.7163430012937557,-230.60885049831475,998.2226779862615,0.6601556205317379,123.81418631537862,3.219299779558175,101.0,1
13.62514615058899,-107.8144758939743,950.2789378166199,0.6568056786689659,-210.8591638943168,1009.7905645467846,0.5916577134380406,118.99513200613873,3.7327034515970468,101.0,1
13.72513461112976,-93.04182231426239,961.7568254470825,0.6022625692859223,-204.94581146601655,1017.4786863834842,0.5433036479433129,125.00971391972544,3.3780973575753106,101.0,1
13.825130701065063,-77.2332102060318,971.8320369720459,0.551983398570106,-185.90306979196905,1027.8419077994756,0.4941367216311926,122.25483226659256,3.314370447456488,101.0,1
13.925138235092163,-61.586376279592514,981.3045859336853,0.5029880000585624,-161.47506996797742,1034.4318694972928,0.42481377647108026,113.13823131735775,4.479053078274774,101.0,1
14.066871643066406,-38.52212429046631,993.9262866973877,0.4453571757832459,-141.08229954863646,1039.5165784239757,0.3781895023340939,112.23664396578319,3.8484242083493285,101.0,1
14.200228691101074,-17.65279844403267,1003.1421184539795,0.39023942342332185,-111.06966152560776,1049.7199781114934,0.3080648937586298,104.38489985757907,4.70825373325944,101.0,1
14.366893529891968,12.863146141171455,1014.7515535354614,0.3529672325082112,-73.76089489828556,1064.1374295488758,0.2651248169089756,99.71303443190301,5.032999676070347,101.0,1
14.84188985824585,97.19473868608475,1044.9645519256592,0.30060901554534325,5.578805286975301,1076.5276290251652,0.19493552761930213,96.90050097176702,6.054644864588819,101.0,1
15.383621215820312,195.63379883766174,1072.9873180389404,0.22599460396316182,103.121312619737,1092.99968586133,0.13385653623294647,94.65228455816755,5.279122413431864,101.0,1
15.716873407363892,257.6148509979248,1083.2570791244507,0.10294732709550088,158.16168896804228,1114.4223398229226,0.029523659242462228,104.2219022669697,4.206866284349493,101.0,1
15.85854983329773,277.6707410812378,1084.9900245666504,0.028140903495443428,177.72863906041087,1121.297863295039,-0.027425449787780585,106.33288724316691,3.1837175260616415,101.0,1
15.958529233932495,299.82590675354004,1085.318684577942,-0.02710305143362792,203.64941804439795,1116.4770877214114,-0.09317106394391729,101.09778962406006,3.785418277657105,101.0,1
16.07523202896118,320.66798210144043,1084.932804107666,-0.09061260190659766,232.15903010614966,1118.6327558721514,-0.16292674906675822,94.70755689084862,4.143295431365147,101.0,1
16.858630418777466,455.8851718902588,1032.7547788619995,-0.6639303100353213,363.3550743986783,1073.6848730159807,-0.7150829167855919,101.17851327853731,2.9308284778829083,101.0,1
16.93361496925354,468.8844084739685,1021.8087434768677,-0.7250528089535428,375.4095585799845,1068.7409022511526,-0.777214068568187,104.59529191085771,2.988620030005295,101.0,1
17.016978979110718,479.9722135066986,1011.0045671463013,-0.7886237288241498,387.94804402084816,1059.7917774963917,-0.8464110500808487,104.1568032502174,3.310969617375478,101.0,1
17.10036277770996,489.956796169281,1000.0555515289307,-0.8624551950893712,398.3615311138026,1048.7736620750616,-0.9020213478235918,103.7455872592583,2.2669735632408425,101.0,1
17.158627033233643,496.6070353984833,991.507887840271,-0.9129942684641305,409.87854983904884,1032.3804124108372,-0.9574869134265115,95.87697049972199,2.5492407757184368,101.0,1
17.216958045959473,503.0600428581238,983.0705523490906,-0.9622679321655994,409.1120046741914,1030.5085624159701,-1.0060644325041177,105.2454211722058,2.5093546268403824,101.0,1
17.29198908805847,510.26374101638794,971.6724157333374,-1.0266167384746092,412.8955068773821,1019.2198668628743,-1.0617904826573141,108.35743227053673,2.0153070913418225,101.0,1
17.35858130455017,516.457200050354,960.8891010284424,-1.0846980639291603,422.9103904058446,1007.0982526284957,-1.1272369408314626,104.33739160177807,2.4372981117284622,101.0,1
17.433635711669922,522.6894617080688,948.285162448883,-1.1498943080107316,429.36893306454004,997.1938363121801,-1.2019235626029776,105.36023654763706,2.9810566993473557,101.0,1
17.516984939575195,528.8842916488647,933.6854219436646,-1.2229671521111483,429.58471622327346,983.4208445596611,-1.2663918346533776,111.05862389969755,2.4880510363651656,106.0,1
17.591970682144165,534.0713858604431,921.2031364440918,-1.2869054498041228,430.2094718445065,968.4960348805114,-1.3235036406535126,114.12237039937138,2.096921873484343,106.0,1
17.65861201286316,538.0945205688477,910.2675914764404,-1.3460815228598315,432.2280241328973,951.9439884536989,-1.3894052002003647,113.77450124095965,2.4822638645991115,101.0,1
17.733602285385132,540.0826930999756,896.750271320343,-1.4093576149118088,428.49896374872174,942.7648986275098,-1.4565298736875918,120.69910762781689,2.7027713379513263,106.0,1
17.816933393478394,542.4449443817139,881.0074925422668,-1.4782054054504605,429.6811735883706,926.7939570258369,-1.5289894179648873,121.70484104356275,2.9097095838162095,101.0,1
17.89201831817627,542.8049564361572,866.6574954986572,-1.5414564819912635,427.740196741276,918.4763657025575,-1.59684783161556,126.19466800483062,3.173690555005753,101.0,1
