time_stamp[s],x_true_pose[mm],y_true_pose[mm],theta_true[rad],x_pose[mm],y_pose[mm],theta[rad],p_err[mm],a_err[mm],num_particles,valid_pose
5.083317041397095,21.874994039535522,6.813067942857742,0.01499729579668995,138.82891226801374,-17.531549519543887,0.5108355830214824,119.46078598596378,28.409441178976092,1000.0,1
5.2583537101745605,47.06243798136711,7.175207138061523,0.015408899986168519,215.66244906036098,-13.355109817313828,0.4901277854701132,169.84539337328238,27.19938859338427,1000.0,1
5.416605472564697,73.72267544269562,6.672307848930359,0.019477249873929802,231.76449604789266,2.9418291273561703,0.4947484757629864,158.08584228733895,27.231035367451728,1000.0,1
5.591619491577148,101.73068940639496,7.197536528110504,0.018643810995422092,262.7318183167763,0.6065459276981967,0.49463703234578893,161.13598191438172,27.272402660212407,1000.0,1
5.774968385696411,130.62147796154022,7.486138492822647,0.019274972992138626,321.0755235385554,20.071297518669503,0.4860419664189836,190.8694048410002,26.743778739368857,1000.0,1
5.9583423137664795,159.07281637191772,7.459484040737152,0.020013831657048637,338.4647135614635,30.539208625503328,0.46470701352052235,180.87046874537927,25.47904249902061,1000.0,1
6.133312702178955,187.02995777130127,7.805269211530685,0.020575350572566382,387.99019951273857,32.53543128153117,0.4405307504935568,202.47617063937525,24.061671999201376,1000.0,1
6.291708707809448,212.20135688781738,8.33236426115036,0.02146887973378258,417.88211250725635,65.34361840263846,0.42228401172056335,213.43583656679758,22.96501542782158,1000.0,1
6.47502589225769,243.16748976707458,9.051498025655746,0.021369217377673447,451.842612364527,74.85423764233673,0.39164166045054616,218.8042671707353,21.21504825807364,1000.0,1
6.649991273880005,265.9766376018524,10.09351760149002,0.019887091917544435,464.60656480466804,82.4025699608691,0.37310717024162154,211.38222970180644,20.238019727249988,1000.0,1
6.8332836627960205,301.10669136047363,11.074766516685486,0.021782511539907595,466.06416993413393,88.71729685177323,0.3478091194169641,182.31657152934457,18.679948640321978,1000.0,1
7.016656160354614,330.0151526927948,11.574942618608475,0.021250411455690697,492.2384865115466,94.66488477808754,0.33331179155511276,182.264501544694,17.879800028724663,1000.0,1
7.149988889694214,351.92859172821045,10.97337156534195,0.022345190298652118,492.87600962819965,97.01599630821941,0.3129922665977331,165.13481730185742,16.65285079975416,1000.0,1
7.333293437957764,383.30477476119995,10.156027972698212,0.027489281893614402,496.49014840800186,107.88708898495167,0.28729359150553574,149.54025910819792,14.88569044007322,1000.0,1
7.47494912147522,407.9985320568085,10.901011526584625,0.025818968291841434,509.61398499891976,111.33285707949138,0.275213207108531,142.87146628278634,14.28923731907404,1000.0,1
7.63334059715271,433.77140164375305,11.825162917375565,0.024998896700448216,530.2077109242458,124.98373110672291,0.26611220936957913,148.67690910933692,13.814775200359403,1000.0,1
7.774945020675659,457.36557245254517,12.783445417881012,0.02496085766880601,532.2017382878216,136.2044543624964,0.2513431109993671,144.3370955985738,12.970747672502576,1000.0,1
7.933342933654785,484.1163754463196,14.152046293020248,0.02407559099960312,533.7888700979053,143.88983209999026,0.24210953184100786,138.92173980701162,12.49242460081756,1000.0,1
8.066731452941895,507.1372389793396,14.876503497362137,0.023823947696421825,539.7106203417819,146.6065139315555,0.22264507498969602,135.69753432681006,11.391611471937912,1000.0,1
8.233381032943726,535.3164076805115,15.23004099726677,0.023630627507203884,549.4382286396947,143.55505700362588,0.20624056950134292,129.09971169694978,10.462778973392943,1000.0,1
8.391715049743652,563.5677576065063,15.353132039308548,0.025753729908579763,564.9308701011604,145.14933449311147,0.19224488529103131,129.8033599222365,9.539240529671273,1000.0,1
8.524971961975098,585.3658318519592,16.11129567027092,0.027026408595763645,587.5791336234291,148.9101257952312,0.18645527867129855,132.81727292520975,9.134601387867697,1000.0,1
8.691668272018433,614.933967590332,17.064686864614487,0.027078211078363418,605.1803850376654,151.96681946059468,0.17554149346517955,135.2542707331458,8.506319493423495,1000.0,1
8.824981212615967,636.4879012107849,17.84580759704113,0.027360703581361008,619.551807906327,154.19805604885764,0.16301892277193472,137.4000251611447,7.7726434158805064,1000.0,1
8.991633653640747,663.6685729026794,17.864689230918884,0.02804152292654836,643.8717258009045,157.91345611755963,0.16041154965762733,141.441055785227,7.584243865724714,1000.0,1
9.124964475631714,688.2351040840149,17.49487966299057,0.032987936339223,663.6549736224462,162.21174244443435,0.1621714922179655,146.78948595458385,7.40167253434438,1000.0,1
9.291675567626953,717.9695963859558,19.168484956026077,0.031479976533632104,683.0558724940781,161.59957466203548,0.14982617016629032,146.6478210913465,6.780737416589332,1000.0,1
9.424962520599365,741.131603717804,19.526058807969093,0.03239412995359093,703.4329898124952,165.55507278455838,0.1433413512780233,150.8166383836891,6.356807530593823,1000.0,1
9.583297729492188,768.7831521034241,20.244574174284935,0.03225655816116801,726.9941092459147,167.561264280365,0.13969294154953063,153.12913271731668,6.155651334302605,1000.0,1
9.983319282531738,795.8868145942688,20.78840881586075,0.12125827559086379,742.4748305209449,168.27154591095788,0.18612285219272157,156.85699146056646,3.716466479189482,1000.0,1
10.12500262260437,799.2260456085205,22.500507533550262,0.17449930092464325,743.0630827361938,165.20515486379242,0.23359307466537446,153.35871272362434,3.3858238308449096,1000.0,1
10.283291578292847,797.2650527954102,22.189009934663773,0.22740591311357553,741.809648570715,164.23858424302932,0.28201291130803924,152.4906010838445,3.1287505284212775,1000.0,1
10.408325910568237,798.9766597747803,22.256353870034218,0.27539185575368874,739.7438485768124,162.61688938443928,0.33254898069230554,152.34699160897358,3.274862028084687,1000.0,1
10.566632747650146,800.7989525794983,22.49845117330551,0.33430867860904634,742.9256465315589,163.89310790505442,0.3854739380294132,152.7801312514411,2.9315534224789985,1000.0,1
10.699981212615967,801.9951581954956,22.973012179136276,0.3880066411549619,743.6417399227339,166.04865414865145,0.4448476733162991,154.51783311030727,3.256751246011996,1000.0,1
10.866698503494263,803.4780025482178,23.886684328317642,0.45142733633998694,746.7356501523793,164.74900099923371,0.49993523468215934,151.8614065959846,2.7792978480561215,1000.0,1
11.000016212463379,804.8339486122131,24.38177727162838,0.5043519275618457,746.2978631704672,167.11304235372415,0.5576982711155091,154.2682317613671,3.056520338079839,1000.0,1
11.166682004928589,805.9467673301697,25.502800941467285,0.5694198666344634,745.9654096309849,164.50570556422753,0.60898508594014,151.39210932212328,2.2669200817247934,1000.0,1
11.28335976600647,806.8208694458008,26.289764791727066,0.6136425885277244,741.6914349425705,162.30626982777974,0.6541856829829602,150.8056128959831,2.3229482006852638,1000.0,1
11.441619396209717,807.5008988380432,27.279598638415337,0.6788080130246016,736.60850239426,160.4699987089327,0.7088776561461052,150.88212135467543,1.7228636423267436,1000.0,1
11.558401107788086,808.3277344703674,27.93901599943638,0.7217226621396329,740.0583780958964,162.70532810788612,0.7603804697988548,151.07171773398426,2.2149292241019225,1000.0,1
11.69999647140503,809.053361415863,28.859717771410942,0.7805114476814459,744.2781658015691,164.43193726627166,0.8171493121935535,150.25196393269783,2.0991950069159,1000.0,1
11.858365058898926,810.0146651268005,30.017632991075516,0.8434779726249885,745.0285627308323,165.86729101575236,0.8738054273960577,150.59323719888923,1.7376351617561596,1000.0,1
11.98333191871643,811.0719919204712,31.093763187527657,0.8947117714355819,746.232617887415,166.60882466608248,0.9226029021426295,150.22808097201752,1.5980440753615608,1000.0,1
12.141648054122925,811.560869216919,32.311610877513885,0.9627287434216154,745.7093383481034,167.43057431648907,0.9789942824748845,150.3115378092769,0.9319467392575366,1000.0,1
12.258262395858765,811.9112849235535,33.296942710876465,1.0099009387131854,749.6641108254117,168.7653064564483,1.032784871409568,149.0851711576538,1.3111527621641506,1000.0,1
12.38322639465332,811.8228912353516,34.03801843523979,1.0639846864899811,753.7914231626796,168.8777067577617,1.0870594486734895,146.797114527447,1.3220864863831043,1000.0,1
12.516696214675903,812.4471306800842,34.99104082584381,1.116840885010516,754.2155713985778,169.34307549617648,1.1354802075166095,146.42876669703213,1.067954512582364,1000.0,1
12.6416015625,813.2089376449585,35.961464047431946,1.1710340169638915,756.9008759619945,169.88343007972324,1.1904621399481714,145.27797767193297,1.1131494508603463,1000.0,1
12.78325891494751,814.1143918037415,41.099950671195984,1.2138794804607456,763.7716153953571,183.09557711304163,1.2477501053057007,150.65574355170384,1.94064385308688,1000.0,1
12.958302736282349,828.6973834037781,77.9479369521141,1.224054261465992,772.939204762997,213.28725974058972,1.2678947885438996,146.37522597140696,2.5118771731931115,1000.0,1
13.141660690307617,838.7234210968018,106.59770667552948,1.2376934617531867,778.0980906612543,238.46974609897333,1.2736081035382707,145.14015802705205,2.0577573970095044,1000.0,1
13.31665587425232,849.3204116821289,134.64222848415375,1.2477715688098647,784.6997844605071,265.17263065908463,1.2784672083568174,145.6503050270236,1.7587305954952492,1000.0,1
13.499982833862305,860.2120876312256,162.85113990306854,1.2585464788788414,792.5896266396644,293.8152797519672,1.2860963398985057,147.39200506444402,1.5784907625987457,1000.0,1
13.658313751220703,868.0189251899719,188.6948198080063,1.2679306012434697,804.0228843099916,325.982935769658,1.2949052583319904,151.4711854862569,1.5455340049848887,1000.0,1
13.833337545394897,876.7778873443604,217.92151033878326,1.2788955156590145,813.2296193026347,354.7856727306366,1.3045491425881521,150.89791687868527,1.4698445522427415,1000.0,1
14.016645908355713,887.2914910316467,251.91935896873474,1.2914228850870273,819.4868356906063,381.53052934003665,1.3133419869176575,146.27551664901387,1.2558720256125855,1000.0,1
14.1582932472229,892.985463142395,272.9046046733856,1.2947058278620973,826.2248594043123,404.95352224376927,1.314683066860839,147.96585701770286,1.144611480952048,1000.0,1
14.333316564559937,900.529682636261,301.6311526298523,1.30366495057313,833.9317820154149,431.21454036015126,1.323090211185309,145.69534907733015,1.112985449019569,1000.0,1
14.491659879684448,904.8441052436829,327.85525918006897,1.3100836777921094,838.1208031339,454.92463869174185,1.3262076373257556,143.5222151930317,0.9238348303176546,1000.0,1
14.675005197525024,915.0654077529907,358.94301533699036,1.3269670905562092,845.0008192448128,485.0334825220545,1.3400125213782597,144.24927201815626,0.747448128033371,1000.0,1
14.816588640213013,922.803521156311,382.55223631858826,1.3332013112754595,848.436239447218,510.2665457631146,1.3461686704027873,147.78848881320846,0.7429749494263308,1000.0,1
14.974997520446777,928.652822971344,411.047488451004,1.3394914841114942,854.7678028931236,533.5538581056823,1.346777298945854,143.06224798292416,0.41744644032262057,1000.0,1
15.116611957550049,934.0499639511108,435.89773774147034,1.3441601702168553,859.5928787414405,560.8135288403413,1.353560445069997,145.42287441725554,0.5385960753479766,1000.0,1
15.274972200393677,940.1859641075134,462.4994993209839,1.3500499259315395,864.858417835456,585.2463590186364,1.3545546602876133,144.01746697190643,0.25810226643061085,1000.0,1
15.416619539260864,946.0194110870361,488.21815848350525,1.3551961258640222,871.05081579844,608.97513848322,1.3594498380545625,142.13563416046247,0.24371975578131214,1000.0,1
15.575051546096802,951.3580799102783,514.0171647071838,1.3880679203822688,877.6995039093559,632.7575110079188,1.3818533791175858,139.7313696279476,0.35606698607622983,1000.0,1
15.716633558273315,955.7371735572815,535.9054803848267,1.3957244555006179,881.9061387829354,657.8004827469797,1.400105074376385,142.51109885451027,0.2509909732367999,1000.0,1
15.874968767166138,960.4666233062744,563.1885528564453,1.402136951180902,887.8634482165029,683.3367103934635,1.4055758693673095,140.3809132063763,0.19703549817192748,1000.0,1
16.008241176605225,964.2242193222046,585.2096080780029,1.4081569495156998,891.0612017703813,708.3336851126998,1.4131650407055163,143.22138626243762,0.2869424885931356,1000.0,1
16.174928665161133,968.8499569892883,614.1725778579712,1.4135831799713137,896.7791931870362,733.2861778669279,1.4180332706119207,139.22013037680202,0.25497141215745484,1000.0,1
16.308295011520386,972.4504351615906,637.5463008880615,1.4184189088537338,902.5214619343388,761.0618097181754,1.4219866126923173,141.9371065584318,0.20441437250345845,1000.0,1
16.466596841812134,978.9827466011047,664.7029519081116,1.4335923093065095,904.9742471149518,786.3718954524825,1.438521856732834,142.40993581697595,0.2824422624379684,1000.0,1
16.608318567276,981.1630249023438,689.8701190948486,1.437614614267433,908.9646350304351,812.9734546241054,1.438424894206473,142.71313435884204,0.0464256207311054,1000.0,1
16.766592979431152,984.8250150680542,719.3716168403625,1.4422768544635962,911.5520705501141,838.7313844245051,1.4465104561263766,140.05598350684508,0.24256750741688549,1000.0,1
16.908303022384644,988.299310207367,744.3358898162842,1.4468366107891661,915.7152521606056,859.9087156917399,1.4459314463376178,136.475358813868,0.05186210283899221,1000.0,1
17.0665864944458,992.5318360328674,771.7462778091431,1.4537890790944563,919.8332073313661,886.1594471068834,1.4530584740835992,135.55612831529282,0.04186058361322085,1000.0,1
17.22491192817688,996.3823556900024,800.3677129745483,1.4596181574320894,922.9551353659605,911.0480073498017,1.4597742095517692,132.82200212129064,0.008941127841718842,1000.0,1
17.36667513847351,999.3742108345032,826.8703818321228,1.4628175409681614,927.8037582751501,935.5383185918172,1.460250397833609,130.11936888549508,0.1470864670158384,1000.0,1
17.524994373321533,1002.7832984924316,851.4066338539124,1.4680203364492124,931.9647295110417,961.4689346328137,1.4587286016631154,130.8777283013318,0.5323771875982518,1000.0,1
17.66663408279419,1005.3279399871826,877.1673440933228,1.4758151671216844,935.421812402102,985.8305980902045,1.4594955730610544,129.2074666694321,0.935043863040864,1000.0,1
17.966708421707153,1006.4271688461304,891.0223841667175,1.5689433163284565,933.8280689298782,990.5999346496592,1.5092409835602474,123.2327791978772,3.4206916947039803,1000.0,1
18.06663727760315,1006.4612627029419,893.8682675361633,1.6093457594968645,931.8913054497787,990.5702756215509,1.5694479728395059,122.11452367546192,2.2859747873800194,1000.0,1
18.258350372314453,1006.4691305160522,897.2395062446594,1.6920080536997977,932.2088477968096,990.5335599704092,1.6291497697725068,119.24080698370396,3.601514376468784,1000.0,1
18.349965810775757,1006.2639713287354,898.5161781311035,1.733416194510751,933.2482195052895,992.7943178869824,1.6836403384898904,119.24624795008046,2.851946471646157,1000.0,1
18.466639518737793,1005.9374570846558,900.6208181381226,1.7832367285257318,932.7873673494299,991.9133916319523,1.7394060881910043,116.98405704794949,2.5113107045357594,1000.0,1
18.608204126358032,1005.1060914993286,903.8916230201721,1.8527800402790384,933.4240830688354,993.8940610071678,1.7914724477374864,115.05976349807216,3.512666304738657,1000.0,1
18.708215951919556,1003.8009881973267,911.0832214355469,1.8950545140481505,933.5260789449037,995.5697184161146,1.8468427100433962,109.89327114288554,2.7623328921843435,1000.0,1
18.849915027618408,1003.3843517303467,910.1014137268066,1.959583074509035,932.308775582821,999.5082659688062,1.904311550960369,114.21612299726104,3.166825026596507,1000.0,1
18.949925422668457,1002.9686689376831,911.3649725914001,1.993192046837217,934.1391284816293,996.1085654803128,1.9518655195606531,109.17409113481692,2.36783559487939,1000.0,1
19.108347177505493,1000.5563497543335,913.1727814674377,2.0598690067915255,935.8407932345606,990.6721192223283,2.007295528859203,100.96658164021663,3.012238399846241,1000.0,1
19.224931478500366,999.3478655815125,914.7161245346069,2.1110308319256363,934.1242225222472,991.5054787516642,2.061032265206421,100.7508239916435,2.8647068547143095,1000.0,1
19.341610431671143,998.1030225753784,915.7243967056274,2.163258938358632,933.9881334620978,989.4964647637739,2.112624985763831,97.73963899863791,2.9011117837475915,1000.0,1
19.483265161514282,996.575117111206,917.3192977905273,2.222111433325167,932.5520814789136,988.8236476718644,2.1672737753998916,95.97823265473507,3.1419663575003978,1000.0,1
19.599985122680664,995.3919649124146,917.8334474563599,2.2764034822623977,932.859748636811,988.0908523298026,2.2204451146623896,94.05520193955098,3.2061782919220776,1000.0,1
19.841559648513794,992.9797053337097,919.3309545516968,2.381708942222486,931.4538404257311,988.8379510014546,2.3265571668944136,92.82593715197001,3.1599639589522877,1000.0,1
20.324912309646606,987.8244996070862,921.8444228172302,2.6041248426457364,922.6401454040939,987.9411613058576,2.5364683084289283,92.83199271638603,3.8764338671055447,1000.0,1
20.799911737442017,975.9543538093567,925.1075387001038,2.8014398899745903,907.8848404566869,990.9777109293018,2.751408381992172,94.72242732095447,2.8665942500676436,1000.0,1
21.65827989578247,832.0308923721313,975.9113788604736,2.892021851490891,761.5115592083099,1038.569084686213,2.8426577670953894,94.33432275272318,2.8283536953898376,1000.0,1
21.799914360046387,807.3052167892456,982.5786352157593,2.9038263277752225,733.9298009897158,1045.4923033704565,2.855655358823593,96.65444265233367,2.759993215984094,1000.0,1
21.958276748657227,778.9928913116455,989.6294474601746,2.918859615095361,709.9866781928437,1053.710656799743,2.864250913412148,94.1714332450085,3.128848131137077,1000.0,1
22.099952697753906,751.4171004295349,995.7983493804932,2.929776936465023,682.9866592691739,1058.7820999070798,2.8834503544531644,93.00364566938727,2.654317628546162,1000.0,1
22.258278369903564,724.1005301475525,1001.6158819198608,2.9430162912578335,657.7574632570208,1067.2842568959231,2.891779045201017,93.34740487254201,2.935677952928915,1000.0,1
22.399964094161987,699.1563439369202,1006.2154531478882,2.9512831925694023,630.6081318995836,1072.078984641311,2.8971447654330573,95.06241188977255,3.101903384389095,1000.0,1
22.558260440826416,673.5168099403381,1006.9681406021118,2.9614836651323695,605.3401920121017,1078.2326598941288,2.902248378777625,98.6239471023898,3.393931906375735,1000.0,1
22.691590070724487,650.5008935928345,1012.2627019882202,2.9799913462730334,579.5704162863567,1086.9423331693308,2.920353224550526,102.99601897292665,3.4170126727871417,1000.0,1
22.85825204849243,623.096764087677,1018.5626745223999,2.9948287516728485,553.961668762595,1091.1868560371456,2.9299852813103304,100.26930311064754,3.7152571807539223,1000.0,1
23.01656675338745,594.1452383995056,1023.723840713501,3.005700954883128,527.3160198572052,1096.5027575337513,2.9459400402984324,98.8074652265883,3.4240481855448754,1000.0,1
23.158243894577026,569.3459510803223,1027.3010730743408,3.0140078569872175,503.0401880055028,1101.5045356389999,2.950126528287507,99.5118489101617,3.660130524181346,1000.0,1
23.31654691696167,541.3376688957214,1031.6681861877441,3.0289692270817925,475.95124989245625,1105.7615876091788,2.963011998296481,98.81910708091033,3.779070837777142,1000.0,1
23.458309173583984,515.8003568649292,1035.4328155517578,3.040586505067589,451.13372975863433,1109.2673954897346,2.9757778232831127,98.149466916138,3.7132639420568623,1000.0,1
23.616719484329224,485.7181906700134,1039.069414138794,3.0490670159446154,425.6907972640349,1114.2407067888057,2.982780477238268,96.19777127246672,3.7979389064042772,1000.0,1
