time_stamp[s],x_true_pose[mm],y_true_pose[mm],theta_true[rad],x_pose[mm],y_pose[mm],theta[rad],p_err[mm],a_err[mm],num_particles,valid_pose
0.34165096282958984,5.856544245034456,8.483055979013443,0.03612852427501879,-4004.379268654608,-9.759322444039885,0.014076980567362595,4010.2773045555573,1.2634603861969669,1000.0,1
5.1165478229522705,55.94928935170174,11.391330510377884,0.0605257753560111,-3967.8503467036894,-56.3492273499942,0.03171336841036273,4024.369800887927,1.6508293155990708,1000.0,1
5.316529035568237,87.97574788331985,12.742513790726662,0.11593455352952498,-3894.70013748134,-48.95047007160193,0.07901411676413965,3983.1536791998137,2.115385204436216,1000.0,1
5.541536569595337,122.5375160574913,16.723403707146645,0.19203703247644577,-3848.2529240925073,-62.768855073966485,0.13093029227976286,3971.5860482674607,3.5011583130723487,1000.0,1
5.65817928314209,141.49980247020721,20.542630925774574,0.24155064856194214,-3833.206862829424,-50.902160981301115,0.17843149803248926,3975.348718473382,3.616460931788586,1000.0,1
5.816508054733276,162.99152374267578,26.135507971048355,0.3154997952365116,-3766.266781496686,-38.98136244382763,0.23826406274873504,3929.797836543901,4.425281499151056,1000.0,1
5.9165873527526855,177.93872952461243,31.351253390312195,0.36710932836701615,-3740.412211500956,-52.37086387724829,0.2966113296634578,3919.2452704514067,4.039237789832642,1000.0,1
6.033186674118042,194.41445171833038,38.09502348303795,0.4353333986424769,-3671.2726033681415,-33.564955253952135,0.3719016876215538,3866.351194655719,3.634369328792364,1000.0,1
6.133182525634766,208.9182287454605,45.07526010274887,0.4966851335932558,-3595.164134166503,-11.564255041337388,0.4339666134398475,3804.503996382922,3.593506502096491,1000.0,1
6.23309326171875,222.72461652755737,53.3440001308918,0.5620832459513272,-3442.46928432757,-0.9685289042259515,0.4891482078381534,3665.5962927845476,4.178869862510663,1000.0,1
6.316455841064453,233.9656949043274,60.823116451501846,0.6170309722568567,-3332.5841730617053,30.677850961447998,0.5360181544745172,3566.6772629045076,4.641692545390438,1000.0,1
6.416417837142944,246.48424983024597,70.77522575855255,0.6871609736169584,-3305.6132405188855,29.084689906672374,0.5963290208452363,3552.342140296204,5.204287538751294,1000.0,1
6.499837875366211,256.635844707489,79.21714335680008,0.7496361015239283,-3198.4047548424933,8.922401732588984,0.6402825871905964,3455.7556185642984,6.265494846223276,1000.0,1
6.558088779449463,263.4185552597046,85.28943359851837,0.7944452606639075,-3112.1563771895744,10.953572114982142,0.6923937977580309,3376.39333385233,5.847118117642607,1000.0,1
6.6330955028533936,271.9394266605377,92.91587769985199,0.852603720432126,-2992.606627257198,52.7446066853605,0.7452255986091508,3264.793204655508,6.1523131924980765,1000.0,1
6.716410875320435,279.10080552101135,104.84923422336578,0.9138465315314437,-2954.322312788939,71.5565322662611,0.8032043078873167,3233.5945116889425,6.339332450751045,1000.0,1
6.79142951965332,287.2667908668518,114.30592834949493,0.9758327709574471,-2919.5223667964497,74.78146546094023,0.8558501820814897,3207.0327227631365,6.874495957645664,1000.0,1
6.8747711181640625,293.68674755096436,126.20188295841217,1.0415291590459794,-2887.630538728644,77.84901146854097,0.9090107724487031,3181.684722935754,7.592744259906948,1000.0,1
6.933118581771851,298.08181524276733,134.84996557235718,1.0893399690698797,-2846.92676036613,80.59775511966015,0.9622119126957628,3145.4764731265295,7.283901087938104,1000.0,1
7.01646876335144,304.45152521133423,145.87987959384918,1.158578789309138,-2810.2274180623203,74.8332643999732,1.0230203331309762,3115.4891335395146,7.76692741631779,1000.0,1
7.0914626121521,308.0882728099823,157.64158964157104,1.2198324550158333,-2557.618914043337,97.5416462727762,1.069590625224029,2866.3373290622476,8.608222753393258,1000.0,1
7.174830198287964,312.8492832183838,169.63326930999756,1.2902686702217947,-2770.6889627803894,85.10433217418047,1.1487976887890774,3084.6966229680515,8.105690159668333,1000.0,1
7.233046054840088,314.8389756679535,178.62990498542786,1.338060577508197,-2643.1278738684246,129.83498627374752,1.193044043840169,2958.3692851042524,8.308835338794813,1000.0,1
7.316390037536621,317.89255142211914,191.68242812156677,1.4096057430161741,-2732.2445849082164,86.06724247724681,1.2716910596942328,3051.9651239586774,7.901929287230523,1000.0,1
7.391413688659668,319.5038437843323,204.49960231781006,1.4719581094621972,-2628.3231835652905,155.14192959269084,1.3161055162021593,2948.240214607649,8.92969581996923,1000.0,1
7.4747092723846436,320.61684131622314,218.4954583644867,1.5433460841822455,-2618.796212909019,170.95606341999581,1.377559251179605,2939.7974585711604,9.498885829891485,1000.0,1
7.5329954624176025,320.2894926071167,228.47385704517365,1.590226112479007,-2514.581097306498,165.36715961658498,1.4447430575309137,2835.57290804125,8.33556503919559,1000.0,1
7.616349697113037,319.3611204624176,243.43188107013702,1.6618620602935659,-2512.5455191568194,176.1185772754788,1.5082089551695887,2832.7065319914927,8.803674432683852,1000.0,1
7.691356182098389,319.9460208415985,249.09386038780212,1.7174876481746661,-2516.9798153906872,185.56953149972816,1.5723149037287765,2837.6369642085883,8.317785557080741,1000.0,1
7.774773120880127,316.8518841266632,259.92903113365173,1.793130416118758,-2516.6010319689262,197.15557485532295,1.6281717859445468,2834.1481850008704,9.451433303241693,1000.0,1
7.849762916564941,313.9805793762207,275.3329873085022,1.8595076707440468,-2528.1810169232617,206.42398336891154,1.6901515750824987,2842.996832622852,9.703389516220536,1000.0,1
7.908068895339966,311.3477826118469,285.34936904907227,1.8977266880173072,-2536.135454226126,220.18581317083922,1.7535437568247385,2848.2287606665227,8.261073435159332,1000.0,1
7.99143648147583,306.2678873538971,298.16240072250366,1.9581215493814967,-2542.6780877671813,229.81830973278468,1.7979052117081669,2849.7656191223523,9.179719957724656,1000.0,1
8.074768304824829,302.8102517127991,309.89402532577515,2.026297694662996,-2553.180285327124,237.85761987689833,1.8489375941307742,2856.898876644321,10.161985214512297,1000.0,1
8.149754524230957,294.87544298171997,321.34413719177246,2.08179391120469,-2570.3951444394497,244.91329729817133,1.9138612860182471,2866.2897991005193,9.621830665735535,1000.0,1
8.20804762840271,290.5699610710144,330.2493393421173,2.1240795177168628,-2570.5632468335552,252.85768612295817,1.9710032746302009,2862.179711576876,8.770622672584372,1000.0,1
8.291348695755005,282.67166018486023,342.24045276641846,2.1785783200840383,-2581.5495411475413,264.85886056730465,2.0245190913302085,2865.2663054196714,8.826943602634945,1000.0,1
8.391352415084839,272.91762828826904,355.6472659111023,2.2462786308479736,-2591.9749563294686,276.1703904221304,2.094447612950749,2865.9947828171616,8.699276524686239,1000.0,1
8.49142074584961,266.10809564590454,368.5276210308075,2.3144744527677887,-2603.9384119384017,289.7960339246195,2.157002882495919,2871.1261934135064,9.022456369875902,1000.0,1
8.566479206085205,256.93225860595703,377.29671597480774,2.3595361912880626,-2615.44402066354,298.0404179771814,2.2137198862250136,2873.46951445154,8.354658864304804,1000.0,1
8.66646933555603,244.63677406311035,389.8520767688751,2.4166573180345705,-2623.793180105918,313.1545147611292,2.280595683686756,2869.4551604776934,7.795757401782008,1000.0,1
8.766468048095703,231.41244053840637,400.33164620399475,2.467433474166419,-2642.9482815072533,324.9591850595059,2.3390909454276345,2875.3487733382576,7.353485228768815,1000.0,1
8.89136791229248,216.001957654953,412.84066438674927,2.5283076305895675,-2663.7255400573104,340.83897609075444,2.3986454844791916,2880.6274844550117,7.429093734733166,1000.0,1
8.9913489818573,201.69275999069214,422.2542643547058,2.571705720458661,-2685.3576410749606,356.89969905726514,2.449339486278367,2887.790026559854,7.011068773440312,1000.0,1
9.149724960327148,178.02506685256958,436.73959374427795,2.62887888278669,-2697.7741246869095,368.41030106011465,2.512473213243072,2876.6108326115022,6.669553576243845,1000.0,1
9.291345596313477,154.79731559753418,449.41848516464233,2.6743171599453923,-2715.680730160417,379.37528430065834,2.5672073245355977,2871.332488787333,6.136941513322127,1000.0,1
9.466314792633057,125.71492791175842,464.7059738636017,2.7162736319003553,-2739.2011536184277,395.50313594859034,2.631483009248312,2865.7517664629936,4.858144820248429,1000.0,1
9.791280031204224,74.36323165893555,486.56919598579407,2.744842258192669,-2781.4721528753967,411.477018366236,2.680668026434019,2856.8224618792824,3.6769126332650557,1000.0,1
10.124654293060303,19.097207114100456,509.5067620277405,2.7331223681578396,-2822.324677847072,433.71697500046366,2.688156977647698,2842.4324829543343,2.5763271003887103,1000.0,1
10.449591875076294,-30.72325512766838,535.6853604316711,2.6799490850702834,-2871.1973218072053,458.4904424707666,2.652803391217675,2841.522827435665,1.5553336897086756,1000.0,1
10.649574518203735,-60.96163019537926,552.0139932632446,2.6181488003504954,-2892.839558403254,471.20366671307755,2.606793058670155,2833.0306932943863,0.6506360715242945,1000.0,1
10.807927370071411,-85.62834560871124,565.3302669525146,2.5458483067056443,-2904.899515354961,481.65929557149843,2.5547526220211267,2820.512499531642,0.5101796870308426,1000.0,1
10.924649238586426,-103.93372178077698,577.1992206573486,2.486201797862702,-2914.2083301735497,495.0426195866841,2.4897619356605993,2811.4752500558557,0.20398087030451542,1000.0,1
11.024627208709717,-117.9303228855133,588.729202747345,2.4456403562433238,-2918.4233081983184,508.22485631659066,2.438429610601049,2801.6498550997535,0.41314529244469334,1000.0,1
11.166306972503662,-128.45028936862946,597.2785949707031,2.365117794198793,-2931.1957559185844,524.1088845894315,2.3798253660649977,2803.7004042485714,0.8426817948188736,1000.0,1
11.241296291351318,-139.01257514953613,605.6361198425293,2.313240922333505,-2930.4033993063986,530.8352264180239,2.3189029276211772,2792.3928639867695,0.32440900656436883,1000.0,1
11.341328144073486,-152.50706672668457,621.2425231933594,2.2560013211147276,-2933.9255298599596,544.2092261952811,2.2554473626329514,2782.485003716114,0.03173948303125073,1000.0,1
11.441303968429565,-164.864644408226,631.3802003860474,2.1900715581213808,-2943.6398373089237,555.098791320659,2.189047740138752,2779.8220133759123,0.058660449394224955,1000.0,1
11.54129433631897,-173.34941029548645,645.6732749938965,2.1145908470683166,-2945.0839887704888,565.5108045837408,2.1189355092797357,2772.893541983943,0.2489308081242928,1000.0,1
11.624617338180542,-182.17717111110687,658.5667133331299,2.05676969788989,-2950.9257678779572,576.0833257626282,2.0607789328235495,2769.976949601478,0.22971224077510577,1000.0,1
11.69960069656372,-188.48679959774017,670.4193353652954,2.0060655948731294,-2953.5356706513066,585.5095089356481,1.9985970562768773,2766.3522801586414,0.42791574069580407,1000.0,1
11.799631118774414,-196.17554545402527,685.6562495231628,1.9309678167689799,-2956.636392553831,602.7106686452584,1.9297469188890621,2761.7067291365584,0.06995229573575697,1000.0,1
11.866342544555664,-199.40754771232605,697.0983147621155,1.8846809501652508,-2954.15657313494,614.1853994792436,1.8652491252925192,2755.996506635585,1.1133615534448618,1000.0,1
11.941323280334473,-201.72101259231567,710.6168866157532,1.8269593558851498,-2952.854451841817,625.5985221993527,1.811117757703602,2752.446788376631,0.9076567165448112,1000.0,1
12.024648427963257,-206.1622440814972,725.2452969551086,1.7653553517427314,-2948.2514171146136,636.375221739768,1.7515480675749608,2743.5289178600287,0.7910991093510538,1000.0,1
12.099724531173706,-207.80417323112488,738.4588122367859,1.7058325258794649,-2943.4843846995577,649.0157121197287,1.6917294318881373,2737.1419925861574,0.8080477637793816,1000.0,1
12.183049201965332,-209.4842493534088,752.8831958770752,1.6415553102846132,-2945.340472508972,661.9557079741315,1.6288807981950733,2737.366815360222,0.7261960501181778,1000.0,1
12.241380453109741,-210.06834506988525,763.6071443557739,1.5960264367309231,-2941.873632290447,676.7771228711981,1.5653592708294821,2733.1848784736876,1.7570991757800818,1000.0,1
12.32468581199646,-210.14568209648132,778.2686948776245,1.5321735250875326,-2941.3382289675556,691.8706017561071,1.5041466262728964,2732.558756656321,1.6058230149188617,1000.0,1
12.399605512619019,-209.48250591754913,791.2462949752808,1.4717270405303433,-2934.5144504667537,702.5639814977526,1.4452307417856516,2726.4745829619146,1.5181260907886172,1000.0,1
12.48299765586853,-207.80271291732788,805.8713674545288,1.4051577462237057,-2929.549610257646,716.4815328547556,1.3916666461718217,2723.21440869268,0.7729830939616809,1000.0,1
12.54131817817688,-205.84487915039062,816.5284395217896,1.3600202033124318,-2922.821152424493,729.632468868913,1.3301833895532302,2718.3654977302326,1.709523502520113,1000.0,1
12.616289854049683,-202.92583107948303,829.5191526412964,1.3001147910901627,-2915.5886709655224,743.2164346481676,1.2671213173424536,2714.035342811805,1.8903867972194113,1000.0,1
12.699578523635864,-198.1065273284912,844.1190719604492,1.2357301909786265,-2907.574137931943,759.7546229772464,1.203066902702659,2710.780716539318,1.8714685632320767,1000.0,1
12.782954931259155,-192.43860244750977,858.5937023162842,1.1685118461756785,-2901.0681088548604,776.0328489724794,1.1422372080347685,2709.8874695244053,1.5054258737076038,1000.0,1
12.841275691986084,-191.0843849182129,863.8322949409485,1.1285563978620807,-2892.9096881960004,789.0961765489237,1.0796010314847095,2702.8587563586107,2.8049358779400233,1000.0,1
12.941273927688599,-182.20210075378418,881.6061019897461,1.0473172973355955,-2882.102453047138,804.9710604513106,1.0142807649229346,2700.987753009142,1.8928538769926178,1000.0,1
13.01625108718872,-175.71331560611725,894.3401575088501,0.9958514567640593,-2872.6916914255244,817.4077866731287,0.9481831968720585,2698.075415795469,2.73119010854438,1000.0,1
13.116218090057373,-163.4550541639328,907.5495600700378,0.93551907688158,-2858.851446822992,832.0676019342515,0.8857000087656071,2696.4530849921125,2.8544223423200137,1000.0,1
13.216220378875732,-153.01024913787842,923.4020709991455,0.865623086691895,-2845.5258818640673,842.4617383246635,0.8175981458269563,2693.731940993455,2.7516264229263445,1000.0,1
13.316222667694092,-139.80677723884583,937.5599026679993,0.7988192507861546,-2830.1489236156935,854.5041298884879,0.7560340288047428,2691.6238827079064,2.451412645065252,1000.0,1
13.416227102279663,-126.53061747550964,949.7808218002319,0.7415671435316158,-2818.740951004059,866.3506532395364,0.6903505512024893,2693.5027516198993,2.934494581501053,1000.0,1
13.516237258911133,-112.99747228622437,962.1961712837219,0.6808635149092289,-2805.8302699954243,883.9994204364685,0.6223861208066961,2693.9679300729294,3.350507878998341,1000.0,1
13.616216659545898,-98.55519235134125,973.5182523727417,0.6248006967875541,-2792.015498687912,886.2437063665554,0.5678741477445614,2694.8738872517356,3.261651002407981,1000.0,1
13.716216087341309,-83.03865790367126,983.8001728057861,0.5736501124519685,-2777.9693707174033,900.0858137088106,0.5065437809540302,2696.2306356811814,3.8449095734376852,1000.0,1
13.857933759689331,-60.26628613471985,997.7238774299622,0.5081590712809979,-2759.802268832636,910.3390387422495,0.4464767171688658,2700.9499499089725,3.534138561056589,1000.0,1
13.97458267211914,-39.60995376110077,1008.5304975509644,0.45938157515292505,-2740.1421263183584,919.0423529371509,0.39292457733874553,2702.014460183965,3.8077054938626227,1000.0,1
14.116297006607056,-18.166983500123024,1018.9322233200073,0.4113495449034757,-2715.7285018185794,926.10969870724,0.3451985051128687,2699.158047648945,3.790175390403753,1000.0,1
14.274539470672607,9.204668924212456,1031.1448574066162,0.37149008051531546,-2686.314212746365,934.9625934682675,0.29660098312120525,2697.2343371199518,4.2908292122266865,1000.0,1
14.557858228683472,59.33631584048271,1050.3284931182861,0.325761711141513,-2635.510313059559,948.2666799572495,0.24191568393148694,2696.7786277333994,4.804023488073553,1000.0,1
14.857863903045654,113.20237070322037,1067.4078464508057,0.3275199480906476,-2580.29802026161,961.6429631513928,0.23888100957654776,2695.5761103458076,5.0786370773775245,1000.0,1
15.149503231048584,165.84965586662292,1085.8675241470337,0.2863410744994059,-2523.574691682693,977.4749638970895,0.21232977169672784,2691.6077478541706,4.240535286858212,1000.0,1
15.374505043029785,205.3547352552414,1096.947431564331,0.22448956435777012,-2478.46564499911,991.6963253386165,0.1598060450366217,2685.8833982193546,3.7060926611547194,1000.0,1
15.532837629318237,234.9478006362915,1102.976679801941,0.1661449939985183,-2450.38164416608,994.0945039528152,0.10404762473760815,2687.535963543605,3.557917177515563,1000.0,1
15.67450475692749,260.17194986343384,1106.7748069763184,0.1099842523824707,-2414.9172537270774,998.407052489662,0.04141505746640094,2677.283290460499,3.928725473300698,1000.0,1
15.807797193527222,279.46585416793823,1108.2879304885864,0.031606068483129315,-2392.321533978649,1004.3724012836249,-0.0016503544469326028,2673.8074509338007,1.9054526755946428,1000.0,1
15.90781307220459,301.61428451538086,1108.3366870880127,-0.01985461495677501,-2374.2836318083178,1007.0490397287037,-0.0635506785393845,2677.814191853702,2.503600024618819,1000.0,1
16.032798528671265,324.000746011734,1108.0504655838013,-0.09403518629615122,-2346.54510967803,1007.4933365576288,-0.11794674706837359,2672.438381617013,1.3700315138189212,1000.0,1
16.132771253585815,342.4370586872101,1106.568455696106,-0.16214536421732642,-2320.3926169641945,1009.1140843406598,-0.1821721466112021,2664.612398835157,1.1474501083959796,1000.0,1
16.20779037475586,356.78863525390625,1100.3481149673462,-0.2025336469663046,-2305.3241947211072,1012.0013222168267,-0.23339167780763373,2663.5783966887248,1.7680349312926877,1000.0,1
16.30774450302124,376.2321472167969,1097.2832441329956,-0.27415807353560434,-2286.2264150699416,1012.6165114497851,-0.281981495855285,2663.8044319201094,0.44824908026614896,1000.0,1
16.391132593154907,389.87237215042114,1091.6779041290283,-0.3312710138327508,-2270.498569949654,1009.906654377737,-0.3332920719021332,2661.6273380877965,0.11579809752647033,1000.0,1
16.49113440513611,406.55258297920227,1085.0225687026978,-0.4057872961155729,-2253.7828811645204,1007.5669956393158,-0.3943513101705483,2661.4627834293256,0.6552337292208377,1000.0,1
16.63280153274536,429.34587597846985,1074.3045806884766,-0.521577644629919,-2230.627258602719,1002.870911603089,-0.49279788702571614,2660.9321385132457,1.648958646130359,1000.0,1
16.70775032043457,440.81762433052063,1066.0794973373413,-0.5821263603848712,-2221.058554062284,995.6226961806178,-0.5501650034685877,2662.8084703794075,1.8312508588143108,1000.0,1
16.791131258010864,454.57518100738525,1057.378649711609,-0.6505227633203234,-2209.5043556511414,990.1754409128779,-0.6091624698466989,2664.92702506383,2.3697702554611717,1000.0,1
16.84945797920227,462.0821475982666,1050.1834154129028,-0.6956686357052139,-2199.8135970967237,987.0043691103283,-0.6751505335276249,2662.645404014023,1.1756006583940326,1000.0,1
16.932770013809204,474.5904803276062,1040.084719657898,-0.775311750340135,-2188.421889308394,979.3609538539661,-0.7318351692361108,2663.7046113576025,2.4910246049188114,1000.0,1
17.007779359817505,485.3464961051941,1028.738260269165,-0.8402760712350205,-2178.1905109708205,969.6045021988868,-0.7983799599204721,2664.1933468513444,2.4004703563339187,1000.0,1
17.049506187438965,491.000771522522,1022.9740142822266,-0.8739845968412401,-2170.00539834547,974.4024432229985,-0.84370401795981,2661.449423451568,1.734949371118916,1000.0,1
17.207772731781006,508.61263275146484,999.8587965965271,-1.009238743279256,-2157.16400830086,961.6932287889632,-0.9528084019135841,2666.0498327199907,3.2332203967355078,1000.0,1
