time_stamp[s],x_true_pose[mm],y_true_pose[mm],theta_true[rad],x_pose[mm],y_pose[mm],theta[rad],p_err[mm],a_err[mm],num_particles,valid_pose
0.19992399215698242,-1.643875613808632,-1.8584094941616058,0.021936888227747618,-951.8147947411752,-2.348343829546947,-0.004196674899201794,950.1710454391871,1.4973428708129117,1000.0,1
5.066662788391113,27.532199397683144,-1.9260086119174957,0.032328608126996096,-886.1794951953589,27.294065515878817,-0.013406562421761508,914.1787973739723,2.620432247754832,1000.0,1
5.249980926513672,54.32078242301941,-1.078728586435318,0.05428654493139247,-808.396433181392,44.48858706529506,-0.006825344912381946,863.9197731016075,3.5014533661166736,1000.0,1
5.424950122833252,82.3320597410202,-0.11082738637924194,0.10301290986609074,-713.2580936495837,50.16409425288865,0.04413511302349131,797.1770568185709,3.3734492661096316,1000.0,1
5.583354949951172,106.74326866865158,2.688363194465637,0.15247111313968875,-654.6359297382216,37.333381456589564,0.0698143009986071,762.1670165108667,4.735886483689681,1000.0,1
5.741731882095337,130.70957362651825,6.1399489641189575,0.2144313754732444,-581.80244020908,59.42994233717734,0.11315142425449651,714.5020596567657,5.802913754125112,1000.0,1
5.866699457168579,149.5908498764038,10.80128364264965,0.2727156662052287,-483.45184610225095,50.324197895245945,0.16425437407043655,634.2752680681642,6.21437427985906,1000.0,1
6.0000691413879395,169.35493052005768,16.15036278963089,0.3363193013984321,-378.0311832872331,52.78148796138201,0.22869963993393533,548.6104236344737,6.166152394542369,1000.0,1
6.125034332275391,187.70892918109894,23.29055592417717,0.4113187493341987,-274.8014317458215,44.05629281038041,0.2762504448111286,462.97629506614834,7.738843795159685,1000.0,1
6.225042104721069,201.79778337478638,30.00514954328537,0.4707329347045518,-199.79735057933237,40.66625834762047,0.34579960626592415,401.7366187647878,7.158152440055107,1000.0,1
6.325010299682617,215.74488282203674,37.449028342962265,0.5357165886536712,-132.57942823557926,40.206291073820914,0.4037998562824261,348.33522384555056,7.55827201202915,1000.0,1
6.425053358078003,229.37850654125214,46.5252585709095,0.6022765731961871,-76.93713890336095,36.40552566999945,0.46366398701785666,306.4827623833609,7.941916175411742,1000.0,1
6.500077247619629,239.31574821472168,54.00223284959793,0.654201371183482,-15.629906538696353,44.9464464325479,0.5184740488687807,255.10643689503456,7.776602733244184,1000.0,1
6.600067615509033,251.94457173347473,64.26671147346497,0.7274084719332886,42.73716534810707,46.25638106214609,0.5894002767481884,209.98121555990969,7.907287122323932,1000.0,1
6.658393383026123,258.81969928741455,70.23752480745316,0.7725020922374365,87.24669993729623,51.331960958663274,0.6350094186353449,172.61145515415936,7.877749911369635,1000.0,1
6.7417356967926025,268.11859011650085,79.308420419693,0.8374028934164355,117.77997100903153,59.66318754370765,0.6899204019564321,151.6167390821094,8.450124312732399,1000.0,1
6.825077295303345,276.01566910743713,89.42566066980362,0.9005733285802405,134.34395548785716,72.88734664328702,0.7446859351121521,142.63376273080632,8.931689725016703,1000.0,1
6.9000256061553955,282.7582061290741,99.649079144001,0.9601741677615094,140.82178141224682,80.87879509664407,0.7983355134410748,143.1721768522573,9.272671854637572,1000.0,1
6.983368396759033,291.0688817501068,109.94817316532135,1.0299023793730855,153.99492622470544,92.05589780409503,0.8663981702079379,138.23676356520238,9.368101117787193,1000.0,1
7.041763544082642,294.94163393974304,119.86276507377625,1.0759132449575057,168.66774388015807,100.89967969499226,0.9279438796991673,127.68983482589051,8.478020126532504,1000.0,1
7.125050783157349,301.5616834163666,131.7022293806076,1.146033515341648,178.19752197039867,111.30350201493074,0.9822093895937167,125.03929145435066,9.386430987776949,1000.0,1
7.2000627517700195,306.1799108982086,142.71263778209686,1.2071262309087143,184.82177008783611,120.71966069017161,1.0462405386269054,123.33486685571177,9.218071151788136,1000.0,1
7.283389568328857,310.505747795105,155.31779825687408,1.2774331084730874,188.37345490849415,136.32378361351135,1.1043899114715021,123.60044319505157,9.914644861641703,1000.0,1
7.341711044311523,312.97847628593445,164.28455710411072,1.3274959150701808,191.2138061082103,152.77462070514525,1.1713484381348078,122.30745496247633,8.946591410013237,1000.0,1
7.416734457015991,315.4390752315521,175.30998587608337,1.3909779381839047,196.1108571542284,164.19175770090143,1.2436947856969294,119.84506092144447,8.43870303088542,1000.0,1
7.500092506408691,317.6800012588501,188.6686235666275,1.4626531036969812,200.09455872752974,177.63847039089862,1.3062097740479113,118.1016535632185,8.963542521865564,1000.0,1
7.583432912826538,318.7465965747833,202.6696652173996,1.53363336090146,203.80366508028155,188.09640486544703,1.3660132338418336,115.8630977396838,9.603925841963203,1000.0,1
7.641754150390625,319.1823363304138,212.5522643327713,1.5818384262471445,202.10559590578504,205.22800889746682,1.4383159136494164,117.30561736821257,8.223234236963014,1000.0,1
7.716728448867798,318.5373544692993,225.65987706184387,1.6441020910234374,204.40274345700675,212.19627330036107,1.4972580544340994,114.92596772345904,8.413543543233702,1000.0,1
7.800076961517334,317.315936088562,240.54290354251862,1.7161181875606148,206.22246673255498,225.77704558784714,1.5574978526590493,112.07046664796042,9.088275734811377,1000.0,1
7.883403062820435,316.2827491760254,248.93227219581604,1.778978700082668,206.7230496133257,241.60983962224643,1.6267577359941103,109.80412463593291,8.721618795686823,1000.0,1
7.958435297012329,313.4932518005371,257.7824890613556,1.8475062157621365,203.51341442936462,252.33842298584304,1.6753056348336535,110.11449715466213,9.866366516903051,1000.0,1
8.016785860061646,310.9646141529083,267.8494453430176,1.8966014400936635,201.33503375962312,263.7340390620374,1.7356651609352463,109.70679772040252,9.22096956631654,1000.0,1
8.075100183486938,306.7927360534668,279.9515128135681,1.942363142727682,200.44268997348402,272.3845090011732,1.7867593558561168,106.61890942938433,8.915440263993853,1000.0,1
8.158415794372559,301.49388313293457,292.73366928100586,1.9985304547145828,194.85622131678963,287.11593050053307,1.8436505415339492,106.78553229075614,8.873965356602913,1000.0,1
8.25843095779419,296.50813341140747,306.8787455558777,2.074975342504728,187.88944010070816,306.1204553750605,1.9102534816372339,108.62134017089865,9.437867421248564,1000.0,1
8.31674575805664,290.2079224586487,315.2161240577698,2.118741247043799,182.71948512395255,320.21904576785494,1.976821094197351,107.60480187376461,8.131425785953038,1000.0,1
8.400092363357544,281.9769084453583,327.90201902389526,2.178542515193845,176.5321713786793,335.7962620256869,2.0294399762897974,105.73982999623368,8.542946193887095,1000.0,1
8.475151777267456,274.8488187789917,338.57372403144836,2.2251326132159757,170.48490276942726,345.8675867831143,2.0807861627122186,104.61848497608614,8.270442401559315,1000.0,1
8.575129985809326,267.0291066169739,351.3827323913574,2.289972312245642,159.9555168000666,360.49782084898277,2.149223917393264,107.46086950080782,8.064288998282088,1000.0,1
8.675145864486694,256.2054693698883,362.8780245780945,2.355114384529189,147.55343946477998,374.68891396700286,2.216144430485376,109.29208896648275,7.962391845837478,1000.0,1
8.75844430923462,246.05438113212585,373.42697381973267,2.403230876325829,139.13865819363272,386.9621931386743,2.2632409249777408,107.76907707442092,8.020833386487185,1000.0,1
8.858428478240967,233.02686214447021,384.67150926589966,2.4558478074214207,131.8346068588421,398.0991266270466,2.317768715674753,102.0792507701203,7.911349196083748,1000.0,1
8.95841646194458,220.1768308877945,395.063579082489,2.5057218028724173,119.86591532490488,408.7194873561814,2.370664665155298,101.23617738656804,7.738203984308059,1000.0,1
9.075100898742676,204.19447124004364,406.7288637161255,2.556071806621237,99.6771158613244,422.6376931118808,2.431635642816156,105.72118249482807,7.129667004829732,1000.0,1
9.20004391670227,185.8571171760559,418.05100440979004,2.6048794996188547,83.13286700295517,436.54866623908305,2.486085342950162,104.37641048999852,6.806403807931965,1000.0,1
9.358396053314209,161.51276230812073,431.89918994903564,2.653396168267666,59.002490848715894,454.1492419188156,2.537079252412786,104.89719046446753,6.664468364462943,1000.0,1
9.516714811325073,134.54392552375793,445.90142369270325,2.6904578907616523,33.229494393628066,472.1281320765506,2.5898925426052375,104.65397358855131,5.7619700146263035,1000.0,1
9.691747188568115,106.65760934352875,458.66018533706665,2.72678146972913,2.962052614851068,490.74080665819315,2.621113153438982,108.54462100730707,6.054348551678962,1000.0,1
9.87508487701416,77.17350125312805,472.1267521381378,2.7395166531093276,-24.451966963561887,505.12213632953785,2.6410257510665454,106.84770080914024,5.643113007487839,1000.0,1
10.058542966842651,46.64231464266777,485.20106077194214,2.7400622110453883,-49.413120414647885,518.1707676074232,2.647114610973953,101.5561331130117,5.325505199963113,1000.0,1
10.23347783088684,17.99502968788147,497.4699020385742,2.730516658228813,-73.80547043233685,530.8440990417698,2.6454096102157574,97.67890687313364,4.876274657965343,1000.0,1
10.391845941543579,-4.745372571051121,510.6046795845032,2.714517163737395,-101.27205700652839,548.2080320754329,2.635191452318291,103.59253316076078,4.545028471187376,1000.0,1
10.575133323669434,-34.304507076740265,523.7557291984558,2.670333886031284,-128.86411177723,567.2604584790203,2.5968118617157643,104.08736864234814,4.212501694537506,1000.0,1
10.7501060962677,-60.84548309445381,538.7032628059387,2.6139298257835457,-154.28332619436526,583.3377288437247,2.547537459027915,103.5512727186003,3.804002406982317,1000.0,1
10.90846562385559,-84.63688939809799,554.1373491287231,2.5491852926125493,-175.05682252889108,596.8870313585156,2.490883998540069,100.01649682989965,3.3404180905042047,1000.0,1
11.03347373008728,-102.6659831404686,567.1385526657104,2.4899726879672914,-191.63689831039605,610.1759370725914,2.4329099739350992,98.83339619157113,3.2694526816065537,1000.0,1
11.150194883346558,-119.66073513031006,578.9971351623535,2.4193222248853523,-207.24515596982295,625.5703911297123,2.365673395487479,99.19727287175805,3.073851500315524,1000.0,1
11.250149726867676,-130.48581779003143,585.7462882995605,2.37897531574769,-217.67443889856932,634.4644262867401,2.307532565594561,99.87648682120357,4.093368060581892,1000.0,1
11.375182390213013,-144.24750208854675,600.1059412956238,2.2877151518381567,-227.98141048881328,647.2875202755895,2.250787075361534,96.11175168015079,2.1158229276468012,1000.0,1
11.450194835662842,-153.45753729343414,610.1877689361572,2.2464631015432612,-233.81387669856736,657.0594198156156,2.184488516431913,93.0273773614993,3.55088216395455,1000.0,1
11.550185680389404,-165.8710241317749,620.1765537261963,2.177223706236407,-242.3922234378581,673.0358713574843,2.1292215403815136,93.0032332969489,2.7503215109723724,1000.0,1
11.633458375930786,-172.0103621482849,632.6413750648499,2.1188782220776874,-251.45807711143493,687.6939761410839,2.0670676675846624,96.65778964017798,2.968526106682895,1000.0,1
11.708463907241821,-180.09474873542786,643.5684561729431,2.0665512415853122,-254.88040412183028,696.3764377511919,2.014310956886694,91.55095395430027,2.9931478337926825,1000.0,1
11.766772270202637,-184.63194370269775,652.7554988861084,2.0283454545167814,-262.5965302414653,709.3337716438984,1.9649013702496527,96.33056473630714,3.6350782635788192,1000.0,1
11.850151538848877,-191.46500527858734,665.7971143722534,1.964432763343171,-267.5549626892235,722.1857016002739,1.91051312467614,94.7066755214462,3.089367728491281,1000.0,1
11.93345046043396,-197.21810519695282,679.3888211250305,1.9017753953176695,-270.46294876154116,735.9066381345657,1.8505680573356953,92.51524603179911,2.933964346467079,1000.0,1
12.008492946624756,-200.93843340873718,693.3407187461853,1.8472072738453122,-271.24161600277404,748.6848296430715,1.7931397486154617,89.47350498229808,3.097841004387535,1000.0,1
12.06679654121399,-201.95765793323517,702.8723359107971,1.8040861426239942,-272.0622362609031,758.9284757902667,1.7329101737225756,89.76047415587101,4.078082620805687,1000.0,1
12.150190591812134,-206.24376833438873,717.883288860321,1.7362635199055663,-273.37717333650215,773.0403201068219,1.6756994767771023,86.88608728159682,3.47006406150928,1000.0,1
12.225144863128662,-207.28552341461182,730.6880354881287,1.6793263565486702,-277.0350173512262,789.4309385174222,1.6142808130917532,91.19057276233542,3.7268351162161344,1000.0,1
12.308504104614258,-209.3014121055603,745.1200485229492,1.6152709661239122,-278.5804139553151,805.7142266548144,1.5519202814732818,92.03930964959777,3.6297268597453307,1000.0,1
12.391862154006958,-209.68402922153473,759.3337893486023,1.548838511647044,-277.39588810447884,817.900736956575,1.4925165115110341,89.52643847210025,3.2270129015286133,1000.0,1
12.450198650360107,-209.02889966964722,770.4039216041565,1.5007196789301729,-276.67802842330576,832.3757086822908,1.434442610325826,91.74370286175876,3.7973963095280845,1000.0,1
12.525185108184814,-207.96765387058258,783.7368249893188,1.4404060445870674,-272.88102473635064,845.2816586582469,1.3676818304124698,89.45117253838971,4.166790540609922,1000.0,1
12.608520746231079,-205.60504496097565,798.4846234321594,1.375444530149709,-271.1379663518975,855.3969407829645,1.3131957623166597,86.79617302777521,3.56659167672344,1000.0,1
12.691911220550537,-201.94286108016968,813.581645488739,1.3107915333359264,-267.0096023349766,872.4858071279035,1.2584789572387445,87.76890722763278,2.997289825825473,1000.0,1
12.750216007232666,-198.9174485206604,824.076771736145,1.2652574243014925,-263.34810561189954,886.0284062862638,1.1981944989054858,89.38296591991293,3.842422586991887,1000.0,1
12.825179815292358,-194.56955790519714,836.6026878356934,1.2064769172128404,-257.5202404755444,896.3267173708363,1.142498348879921,86.77412137260306,3.6657019447656256,1000.0,1
12.908565521240234,-188.93592059612274,850.7533669471741,1.1439354176669851,-248.55308256701363,907.2755466730075,1.0861519395686983,82.15207119983559,3.310749420618466,1000.0,1
12.983542442321777,-182.80822038650513,862.1554374694824,1.08738205685685,-241.0193927282613,918.8046866434345,1.029053219684057,81.22609197403348,3.3419961939068292,1000.0,1
13.05022668838501,-180.33471703529358,869.8884844779968,1.0371433282560991,-232.76172213110007,929.7357953216399,0.9760163468244343,79.56312888852071,3.5023180504089457,1000.0,1
13.125210762023926,-172.9186773300171,882.5029134750366,0.9761349795676982,-225.01097981488738,938.0511648484248,0.9231030976408651,76.1525850435581,3.038503014043648,1000.0,1
13.20856237411499,-163.94954919815063,896.2181210517883,0.9221667672798936,-217.6750353246278,948.1188695342239,0.8602628065587465,74.70017103436463,3.5468356844653477,1000.0,1
13.308557033538818,-150.21932125091553,910.1261496543884,0.8559763011867091,-206.06367274057467,960.9912373798257,0.798703272162295,75.53706866576853,3.2815028430291955,1000.0,1
13.40858006477356,-137.7054899930954,923.7735271453857,0.7911989210209688,-197.3538996787054,975.2297893539592,0.7283026785909168,78.7761366055726,3.6036892384736308,1000.0,1
13.508540630340576,-124.34620410203934,936.5005493164062,0.7268642441581333,-182.39342310345378,987.6454130582854,0.6702051221320212,77.364570191875,3.246328563012946,1000.0,1
13.608505010604858,-110.17872393131256,948.3631253242493,0.6658680831139708,-169.04719985746212,1000.9739503352912,0.6105640166535905,78.95186106869252,3.1686895980908028,1000.0,1
13.70845890045166,-95.44196724891663,960.0013494491577,0.6102379000132897,-150.32032662918823,1012.9049908847305,0.5480052097965509,76.22617401794413,3.5656704971642235,1000.0,1
13.808460235595703,-79.83128726482391,970.1591730117798,0.5603683182239885,-134.4471297711752,1023.1244917919582,0.4975542822739325,76.08032101775395,3.5989791541212335,1000.0,1
13.908457040786743,-64.08838927745819,979.8368811607361,0.5108716733821054,-121.70646228829271,1033.248215806271,0.4454186747665262,78.56597868097344,3.750180577148307,1000.0,1
14.025194644927979,-43.91951858997345,990.9685850143433,0.4573169741371759,-99.0691865677913,1042.0476038337931,0.3916783887403689,75.1701539284127,3.760813916446079,1000.0,1
14.183558464050293,-20.84139734506607,1001.6541481018066,0.39785248984599425,-72.26529542941971,1053.4434346869616,0.3345090781434929,72.98320011611784,3.629310150512916,1000.0,1
14.30853009223938,2.884422428905964,1011.5587711334229,0.36398015462393934,-50.123224376917086,1061.9089823279246,0.28508522001980013,73.1091949567345,4.520346777777809,1000.0,1
14.466866493225098,29.646795243024826,1021.9078063964844,0.32300895678595626,-25.561113032871436,1072.255145896816,0.25461531564039735,74.71792108297329,3.918666983172818,1000.0,1
14.60024356842041,54.60013821721077,1029.909372329712,0.3055158533858464,-1.4806671449977782,1078.801912378441,0.21798948509671842,74.40119086742165,5.014891499074718,1000.0,1
14.766856670379639,84.26669985055923,1039.8246049880981,0.3010778622486473,26.989233588098188,1084.970160688116,0.20770770607209135,72.93030468132422,5.349715881394011,1000.0,1
14.90023136138916,108.77753049135208,1047.6120710372925,0.300666311901204,54.35426365785629,1092.4524166790109,0.20981890405683362,70.51630003125983,5.2051730491861115,1000.0,1
15.06693148612976,138.35406303405762,1056.915044784546,0.2884524338631665,82.85917786214452,1097.0739355325595,0.20575301268748783,68.50123200610858,4.738327801541216,1000.0,1
15.200271606445312,162.16878592967987,1064.2259120941162,0.2709424237423152,113.68979980555828,1107.962306145135,0.1903987330140124,65.29229862861904,4.61481354513873,1000.0,1
15.366931438446045,192.5572156906128,1072.1659660339355,0.23054991255144858,136.9285019229389,1112.3295604492005,0.1687210276316224,68.61244866494485,3.542534157906102,1000.0,1
15.525226831436157,221.67649865150452,1078.1276226043701,0.1799260641039057,164.8915597705991,1115.3937666074116,0.12385352365815461,67.92123948047174,3.2127199141181446,1000.0,1
15.925196409225464,293.0023670196533,1085.479497909546,-0.012693371433312733,238.51852571516847,1119.891640789404,-0.036347059063291796,64.44132634324075,1.355256471118603,1000.0,1
16.21686887741089,346.30367159843445,1081.1235904693604,-0.18188422729895856,292.32222462051027,1116.3103347329652,-0.21142826659833572,64.4368185876892,1.6927487616229526,1000.0,1
16.75862216949463,439.7229552268982,1043.7209606170654,-0.5838383603169036,386.94981430901464,1082.6930545858231,-0.6071822243127776,65.60357086812024,1.3375048844909752,1000.0,1
16.841972827911377,453.21470499038696,1034.902572631836,-0.6501216373673849,400.11102982999864,1074.1690267322756,-0.6767784130847075,66.04433914547089,1.5273207440294032,1000.0,1
16.91695785522461,466.33192896842957,1024.2161750793457,-0.7126528607636974,412.12085679234775,1065.5578041551257,-0.7367508414376134,68.17602687983315,1.38071258740321,1000.0,1
16.98360800743103,475.4944145679474,1015.6430006027222,-0.7626823339214372,422.4429506511811,1056.615102907603,-0.8015628274185919,67.03111957138692,2.2276881827728015,1000.0,1
17.05866527557373,484.846293926239,1005.6478977203369,-0.824252699109944,432.5017751180244,1048.2302279084151,-0.8560243348743418,67.47742951172675,1.8203806375268965,1000.0,1
17.14197611808777,494.79174613952637,993.8801527023315,-0.8980128893685956,441.0824328368687,1037.3549739007567,-0.919211486417665,69.09956883858305,1.214590142510161,1000.0,1
17.216958045959473,503.0600428581238,983.0705523490906,-0.9622679321655994,451.1302055206191,1025.727519819258,-0.9902655334598672,67.2036076386575,1.6041443906515602,1000.0,1
