time_stamp[s],x_true_pose[mm],y_true_pose[mm],theta_true[rad],x_pose[mm],y_pose[mm],theta[rad],p_err[mm],a_err[mm],num_particles,valid_pose
0.2000267505645752,-7.798437029123306,6.66387751698494,0.01468258361536424,-1000.0,0.0,0.0,992.2239408648695,0.8412500735083045,500.0,1
5.2583537101745605,47.06243798136711,7.175207138061523,0.015408899986168519,-946.4363221396113,-0.03479804836643082,-0.0013566897279765763,993.5249219504813,0.9605975316684582,101.0,1
5.591619491577148,101.73068940639496,7.197536528110504,0.018643810995422092,-893.9545665914138,0.17822778812756798,0.002065575799961779,995.7099977938402,0.9498629084751152,101.0,1
5.933295726776123,155.37530183792114,7.599528878927231,0.019922083665521,-837.9841783151536,0.2186378239893569,0.0016431861191932716,993.386900639802,1.047303683556615,101.0,1
6.2500081062316895,205.44227957725525,8.096866309642792,0.021235458369202355,-785.1805981663891,0.5249070596478406,0.00279093768920939,990.6518159656213,1.056793190105364,101.0,1
6.575058698654175,254.76276874542236,9.694106876850128,0.020918959801275647,-731.9089804536453,0.8305467589237258,0.006047689672400663,986.7115603688405,0.8520610143835085,101.0,1
6.891724109649658,310.03618240356445,11.325053870677948,0.0214481467498035,-673.5361143742687,-0.06699776707111268,0.00217574325956499,983.638267773951,1.104227381063864,101.0,1
7.208364248275757,361.9089126586914,12.401387095451355,0.016949949622345375,-625.8529503824204,-0.5675574542231562,-0.006783324319677724,987.8469980726676,1.3598164309057374,101.0,1
7.533289432525635,417.3641800880432,12.300308793783188,0.023720554061313157,-576.9466610181838,0.2451362955702198,-0.00696467473112145,994.3839177728762,1.7581341031998186,101.0,1
7.833282232284546,467.30679273605347,13.620872050523758,0.023613588659249486,-525.1386229898015,0.41891347620680425,-0.014788389640245729,992.5332210588535,2.20027128151405,101.0,1
8.125028133392334,517.1481370925903,14.952465891838074,0.02393610926587476,-472.72755904277614,-0.8261857857529625,-0.014078812526629238,990.001444265734,2.1780945772303775,101.0,1
8.425002098083496,567.8004622459412,15.589021146297455,0.026640631539029114,-414.35853585691916,-0.05248012872343597,-0.009194294713934757,982.2835405912851,2.0531900334573834,101.0,1
8.724974632263184,620.1702952384949,17.164167016744614,0.026842583217008106,-362.9811307076685,-1.1906195956332404,-0.004349083893994552,983.3227468799653,1.7871508814374697,101.0,1
9.024972200393677,670.3279614448547,18.09656247496605,0.029149245251895266,-315.40421284326254,-2.123266323739627,-0.0063968441135553444,985.9395320725446,2.0366408988351785,101.0,1
9.324958086013794,723.7096428871155,19.23830434679985,0.031495686784724704,-248.32154204959087,-4.457766531844804,-0.013111086326714871,972.3199721617073,2.555779836983131,101.0,1
9.624958515167236,776.3136029243469,20.105676725506783,0.0328974829271267,-192.9212843740372,-1.0419241994406976,-0.0014227938141723843,969.4655681256515,1.9664070089974401,101.0,1
9.983319282531738,795.8868145942688,20.78840881586075,0.12125827559086379,-185.74971878327818,-0.5670930069056777,0.061045438803249134,981.868800359595,3.449941420440381,101.0,1
10.12500262260437,799.2260456085205,22.500507533550262,0.17449930092464325,-178.96723895752496,5.691980296997452,0.13060121017171522,978.3376863629297,2.5151753288250416,101.0,1
10.283291578292847,797.2650527954102,22.189009934663773,0.22740591311357553,-182.15113324770184,9.48561974282861,0.19574694742374477,979.4985664132449,1.8139251177767814,101.0,1
10.399967193603516,798.8948822021484,22.04005792737007,0.27260289175033525,-180.8428277541619,9.111656109310047,0.2545015147356528,979.8230064067717,1.037132506316422,101.0,1
10.566632747650146,800.7989525794983,22.49845117330551,0.33430867860904634,-186.26346772627534,10.99079350258294,0.3080512667543808,987.1294989842814,1.5044388802091095,106.0,1
10.699981212615967,801.9951581954956,22.973012179136276,0.3880066411549619,-192.10963935913506,7.508657395260139,0.3619416312099005,994.2250725011992,1.4934150628185354,101.0,1
10.866698503494263,803.4780025482178,23.886684328317642,0.45142733633998694,-192.31666507441736,6.030906408475038,0.4213061085955704,995.9547423807958,1.7258192235074288,106.0,1
11.000016212463379,804.8339486122131,24.38177727162838,0.5043519275618457,-185.35281549205914,7.939859967970347,0.4637466360348147,990.3232626026261,2.326511830397196,106.0,1
11.158406019210815,805.9345483779907,25.488536804914474,0.5665476195848665,-166.44230821743315,6.784871583026701,0.5117598829655832,972.5567224255508,3.139106077359287,101.0,1
11.28335976600647,806.8208694458008,26.289764791727066,0.6136425885277244,-150.4442876056831,10.57963722390377,0.5620948112290648,957.3940615091569,2.9534700824934683,132.0,1
11.441619396209717,807.5008988380432,27.279598638415337,0.6788080130246016,-159.27410481020559,9.701000924126236,0.6001795025318891,966.9348037880694,4.505081800632533,119.0,1
11.558401107788086,808.3277344703674,27.93901599943638,0.7217226621396329,-141.0029955488747,7.041263143549079,0.6458249353859014,949.5607147693573,4.3486194176259705,132.0,1
11.69999647140503,809.053361415863,28.859717771410942,0.7805114476814459,-128.3095091443491,6.902867605437124,0.70357228248569,937.6199946535335,4.408289444976644,144.0,1
11.858365058898926,810.0146651268005,30.017632991075516,0.8434779726249885,-112.01959932421813,12.865767278746697,0.7704984338308266,922.1937818697028,4.1814195637167355,156.0,1
11.98333191871643,811.0719919204712,31.093763187527657,0.8947117714355819,-101.72550594449025,16.084162037361452,0.7965651062017616,912.9208948398658,5.623389691181271,144.0,1
12.141648054122925,811.560869216919,32.311610877513885,0.9627287434216154,-89.80239801359598,22.842984303643703,0.8382825964230499,901.4129987978118,7.1302389996824385,144.0,1
12.258262395858765,811.9112849235535,33.296942710876465,1.0099009387131854,-63.18750864182606,26.96630173152602,0.8777477791615427,875.1216918319373,7.571818291628112,156.0,1
12.374913215637207,811.7257356643677,33.95681455731392,1.0602688805979397,-34.24481259531686,30.158645579545315,0.9278441124755358,845.9790745700362,7.587380316412306,156.0,1
12.516696214675903,812.4471306800842,34.99104082584381,1.116840885010516,-19.599989762119076,34.97181392855971,0.9741852292828894,832.0471206643504,8.173566996864274,156.0,1
12.6416015625,813.2089376449585,35.961464047431946,1.1710340169638915,-4.282536813252614,29.24623836403429,0.9987929880274478,817.5190548652912,9.868684017048915,144.0,1
12.77493929862976,813.5678768157959,39.317190647125244,1.2135966245226535,-1.131774720126236,47.58854018345937,1.0731309098177375,814.7416384571892,8.048092618880391,106.0,1
13.116638898849487,836.726725101471,102.49888896942139,1.2357334822211665,13.935394032963572,95.018287354069,1.0993588141562216,822.825336193541,7.8136929126188726,101.0,1
13.433311223983765,856.1540842056274,153.05978059768677,1.2544442860864242,33.64630334794971,146.1417835295322,1.128649790736501,822.5368734925241,7.207493669528663,101.0,1
13.758314371109009,872.8278279304504,205.10151982307434,1.2743461879863158,64.79910586838348,196.66650137491217,1.1194752840106592,808.0727474760413,8.873449167180965,101.0,1
14.091660022735596,890.0042176246643,263.4473741054535,1.2915549609540424,96.05824365633629,241.9816511997081,1.133521822091194,794.236102705224,9.054631880046086,101.0,1
14.41662883758545,904.3919444084167,316.0087466239929,1.3074282166956999,132.3025756085037,286.7997839250997,1.1439795125745293,772.6416743328006,9.364920913025617,101.0,1
14.716645002365112,917.8964495658875,365.7423257827759,1.3299252824414114,180.99122866488423,337.7101369170377,1.1521711944126358,737.43820636292,10.184559035245751,101.0,1
15.008352279663086,929.839551448822,416.93294048309326,1.3412303402351908,188.17728556173594,398.13641699836353,1.165396792299863,741.9004151069595,10.074520193505538,101.0,1
15.308315992355347,941.3439035415649,468.0730998516083,1.3512476563861093,198.99987386765292,443.79865393163885,1.1839253484494605,742.7408074942587,9.586862063158295,101.0,1
15.608393669128418,952.1424174308777,519.0243721008301,1.3900521662788605,216.03255499086728,497.4524146429835,1.230728664578817,736.4258814911478,9.128564224657895,106.0,1
15.908298015594482,961.340069770813,569.02015209198,1.4040793028464633,247.548421536268,542.4254957988379,1.2438738842045016,714.2869121247699,9.179094343310885,119.0,1
16.208268404006958,970.1386094093323,620.0553774833679,1.414445003081857,243.91215638310675,597.3730782669177,1.277634579847586,726.5805858766095,7.838659844722257,101.0,1
16.508322954177856,982.0215106010437,670.5245971679688,1.435343298155699,270.04716222656424,648.1432076532442,1.291796798729211,712.3260484777139,8.224608581014861,101.0,1
16.808286666870117,986.2582683563232,726.830244064331,1.4440485181941156,298.0037633748529,712.6341313421406,1.2925793644136263,688.400895731339,8.678543238040076,101.0,1
17.091629028320312,993.0826425552368,776.0934233665466,1.454488193802283,323.4772497938527,774.4102185952205,1.3059486923951134,669.6075083161999,8.510686521608367,101.0,1
17.36667513847351,999.3742108345032,826.8703818321228,1.4628175409681614,380.49613967474585,829.2368468886496,1.302325110525539,618.882595586017,9.1955389081592,101.0,1
17.66663408279419,1005.3279399871826,877.1673440933228,1.4758151671216844,390.93143343761847,883.6633004400377,1.3222986746372019,614.4308461569675,8.795847105012667,101.0,1
17.966708421707153,1006.4271688461304,891.0223841667175,1.5689433163284565,381.7752366816578,891.7969239496036,1.3763336545430185,624.652412361214,11.035720713747816,101.0,1
18.06663727760315,1006.4612627029419,893.8682675361633,1.6093457594968645,378.7080638477286,895.0368639116584,1.444343113279916,627.7542865568038,9.453955236721407,106.0,1
18.258350372314453,1006.4691305160522,897.2395062446594,1.6920080536997977,423.6156840770169,920.5358965961136,1.505042955738049,583.3188337686936,10.712311029458194,101.0,1
18.341672658920288,1006.3025951385498,898.3399271965027,1.729696587386149,424.5862437763446,937.1612263178255,1.5604843055024418,583.0102972569384,9.69514959371442,101.0,1
18.466639518737793,1005.9374570846558,900.6208181381226,1.7832367285257318,430.79002659775614,934.2074994602071,1.6197628911735604,576.1272706250887,9.36636094108749,101.0,1
18.600027322769165,1005.2347183227539,903.4667611122131,1.8483057093513715,421.6618688546722,958.8391153148133,1.699908758244071,586.193968108027,8.502518991057544,101.0,1
18.69986891746521,1003.6664009094238,910.8498692512512,1.8928750006997384,425.63918290507223,957.7143813572517,1.7512173580343091,579.9239150516072,8.116385060501438,101.0,1
18.841628313064575,1003.4753084182739,910.0111126899719,1.9553731701791932,426.62888798040444,960.4376859228503,1.8102683657624443,579.0463125346661,8.31389288015098,101.0,1
18.94158172607422,1003.0759572982788,911.3179445266724,1.9907852591122563,417.05599481103417,962.1813578714324,1.8724672682955288,588.2231576966615,6.779121514266121,101.0,1
19.099990606307983,1000.6492137908936,913.1874442100525,2.0562032477284626,420.5728610089571,963.6122706471009,1.9152525853854656,582.2638904981144,8.075878071827272,101.0,1
19.224931478500366,999.3478655815125,914.7161245346069,2.1110308319256363,410.93412359459626,965.2064110233572,1.9767061585683754,590.575990697862,7.696236867844426,101.0,1
19.341610431671143,998.1030225753784,915.7243967056274,2.163258938358632,414.07424578697385,946.4955698810177,1.9980906811841102,584.8388472182315,9.463444045631483,106.0,1
19.483265161514282,996.575117111206,917.3192977905273,2.222111433325167,410.0298092981332,953.4258197759443,2.0791221788413576,587.6555785895475,8.192680797644348,101.0,1
19.599985122680664,995.3919649124146,917.8334474563599,2.2764034822623977,417.1426646825298,956.6051575178154,2.1286730575733936,579.5476673384519,8.464329840355193,106.0,1
19.724907875061035,994.111180305481,919.1349744796753,2.3297221416175775,410.2797587040112,961.8698711388945,2.1949186924532964,585.3933722221898,7.723668700919652,132.0,1
19.841559648513794,992.9797053337097,919.3309545516968,2.381708942222486,415.68052947378595,959.9606548744795,2.2568997155437462,578.7271472782888,7.151041932983383,119.0,1
19.983250856399536,991.1653995513916,920.7581281661987,2.443430936619583,416.77654513688435,968.9604314695455,2.319705050964499,576.4078574406822,7.088971064554516,119.0,1
20.099867343902588,990.1031851768494,920.7693338394165,2.4996762544724294,411.7139390169852,971.060040247904,2.379272410457296,580.5715074169939,6.898632099218638,119.0,1
20.199856758117676,988.9485239982605,921.7967987060547,2.5442779790028607,408.0775785076671,964.2520306630898,2.4256679798045973,582.4203825722977,6.795852362110573,119.0,1
20.31660032272339,987.8848195075989,921.8242168426514,2.600822032675286,406.68414776370923,966.7113582914988,2.4907345625832273,582.9314507753012,6.307547413547638,132.0,1
20.458290815353394,986.2378835678101,922.6921796798706,2.6626855878193476,400.70714910874534,971.1431370779684,2.570456408374166,587.5319023414507,5.284342730163623,156.0,1
20.574939966201782,985.5758547782898,922.6881861686707,2.7215054198796924,400.25971868547424,971.0500784366322,2.6287090509195297,587.3106944321389,5.316840295556121,156.0,1
20.68324375152588,984.440267086029,922.8631258010864,2.7696654668146197,393.0292445337076,966.2076435996873,2.667606121756929,592.9972553221269,5.8475697316750255,168.0,1
20.799911737442017,975.9543538093567,925.1075387001038,2.8014398899745903,389.8548533325704,969.083651394652,2.6937759870345186,587.7469888879584,6.168687244372242,144.0,1
21.116618633270264,920.4122424125671,948.4082460403442,2.8373338889187036,351.3370794271067,988.949670660045,2.7253045536536202,570.5174390298015,6.4188080923453965,106.0,1
21.45835828781128,864.8889064788818,966.478168964386,2.8704441320319343,296.9820768773008,1012.6742234622815,2.754312624458114,569.782627463572,6.653845252471444,106.0,1
21.75828194618225,814.6582245826721,980.7488322257996,2.900376331552558,247.97530884658016,1019.3524121551469,2.795469796626429,567.9962705603974,6.010701694608952,101.0,1
22.058300018310547,759.4498991966248,994.6500658988953,2.928030018561782,204.81485615893226,1041.7496480391749,2.809042714066273,556.6312977215816,6.8174703632306715,106.0,1
22.358315229415894,706.3127756118774,1005.0486326217651,2.948299771885926,158.149432276902,1054.7174871539466,2.8412405625204427,550.4089807467873,6.134040854649643,106.0,1
22.658260345458984,657.3825478553772,1012.2945308685303,2.97696520034605,114.82382780021108,1070.843818704471,2.8492351145468313,545.7086986790625,7.318394833139112,106.0,1
22.958253860473633,604.9308180809021,1023.1682062149048,3.0059493526109407,73.15212900204259,1085.6991297187305,2.8815221255756014,535.4425184393482,7.1291549656410345,119.0,1
23.249906301498413,553.2567501068115,1030.045747756958,3.023716280832083,25.562471964270532,1093.3947172118144,2.893132918953882,531.483154121906,7.481875510250461,106.0,1
23.549957990646362,498.4773099422455,1037.5492572784424,3.0464319822204997,-21.991656608083396,1103.2742269894698,2.9063108269026134,524.6024368848117,8.028350820211974,101.0,1
23.849950790405273,444.40504908561707,1042.9177284240723,3.0700479662766904,-80.78946299509106,1116.9535175326844,2.9453442193079624,530.3871921423329,7.144998390775446,106.0,1
24.133323669433594,392.6849663257599,1047.3703145980835,3.0822374705668567,-132.6405682467984,1124.3513801780016,2.9807612574754008,530.9359676380607,5.814158731110617,101.0,1
24.40832495689392,346.7421531677246,1054.279088973999,3.109648201071822,-169.86910811299953,1133.11149025657,2.985103907977789,522.5913726555739,7.135862356728405,101.0,1
24.691657304763794,293.13817620277405,1054.807186126709,3.1200532027793524,-203.06466653480857,1145.1973539623307,2.996134131103569,504.3685592720962,7.100039808201531,101.0,1
24.949861764907837,246.48576974868774,1055.6650161743164,3.130832189778002,-246.97389315238846,1154.7977609557684,2.9956544968442578,503.31872605571533,7.745111289418958,101.0,1
25.224873781204224,195.87889313697815,1056.0835599899292,-3.13821188595113,-274.42922413769935,1167.0795395589316,2.9835681346935714,483.22855115869777,9.247841709548657,101.0,1
25.50828456878662,144.63239908218384,1055.180549621582,-3.123265568738409,-339.8710686432924,1169.8641102496697,3.017822070955162,497.8914834744092,8.141596625601993,101.0,1
25.92490839958191,103.13637554645538,1054.4624328613281,-3.036523071467327,-373.050865512326,1172.6499209722433,3.0787844515723264,490.63486514223763,9.618688505226409,101.0,1
26.024930238723755,98.64956140518188,1054.9299716949463,-2.9906130229469507,-376.9892858761026,1170.5472283158858,3.1285968926594085,489.489185857687,9.395097881150962,101.0,1
26.166592597961426,96.46927565336227,1054.1695356369019,-2.92667554941163,-375.25512485555873,1169.6357749429153,-3.101382194243481,485.6504529545653,10.009953401756121,101.0,1
26.283244609832764,93.71510148048401,1053.273320198059,-2.876773098440018,-356.0431212750788,1169.6974407811892,-3.0717061507567522,464.5826458121286,11.16884118535175,101.0,1
26.408327102661133,91.37745201587677,1053.8514852523804,-2.8101155567629563,-344.6802282465874,1169.8750319627568,-3.0280112763527685,451.2291700534622,12.484505106462287,101.0,1
26.50833010673523,91.2347286939621,1052.1414279937744,-2.7833805839660157,-322.72627054432724,1169.0999491028563,-2.9811488268978064,430.1662522216109,11.331285641709577,101.0,1
26.666586875915527,87.24988251924515,1050.187587738037,-2.7064586213843094,-320.56330753316536,1160.9866860258057,-2.9031754638793434,422.5967796400087,11.271044834105215,101.0,1
26.783207654953003,84.95510369539261,1049.377202987671,-2.654042897709433,-316.0161991803129,1162.6389844722316,-2.834287781224617,416.66079354181767,10.3272711042472,101.0,1
26.908299446105957,83.43133330345154,1048.0974912643433,-2.597294084630018,-306.1009702057896,1165.3690998840805,-2.7880145601789903,406.8022193467931,10.92747831568413,101.0,1
27.041568279266357,80.84616810083389,1046.3635921478271,-2.538503499780486,-289.9009111973202,1170.246429913462,-2.7492295674126206,390.8968589039548,12.073714308709665,101.0,1
27.166592121124268,79.60966974496841,1044.6723699569702,-2.47935971293452,-284.69871372480907,1167.99627864042,-2.686999611965876,384.6158924424813,11.896889873019246,101.0,1
27.28326940536499,77.88649946451187,1043.22350025177,-2.4253903877624023,-279.01980952363664,1159.4150132237253,-2.6175363778285665,375.34328431751084,11.00915428115385,101.0,1
27.399896383285522,75.13796538114548,1040.6153202056885,-2.3755200189262706,-261.956721908115,1159.7496248351977,-2.5643693364450697,357.5273566291131,10.820268857753186,101.0,1
27.541555404663086,72.51928001642227,1038.353443145752,-2.316794323115352,-245.4498888536325,1159.204067474315,-2.4946411416180014,340.1606469780373,10.189872100030968,101.0,1
27.666597366333008,71.85333967208862,1035.9526872634888,-2.251081315121343,-240.48737247742775,1159.9336010186225,-2.4493617947094966,336.04759698832095,11.360634640231071,101.0,1
27.783252000808716,70.08882611989975,1033.9128971099854,-2.2060216848397394,-227.0258125262285,1158.061735437056,-2.3847662792612216,322.00938271389003,10.241310871128572,101.0,1
27.924896240234375,68.28813254833221,1032.044529914856,-2.140908276080915,-229.05692586322917,1146.0084232215465,-2.303130943072845,318.43657569348653,9.2946741599938,101.0,1
28.04155707359314,67.95629113912582,1030.2940607070923,-2.0846840812745695,-223.3837440701904,1136.3036465275873,-2.235419088990309,310.0274962025119,8.636479766983783,101.0,1
28.15831446647644,67.38042086362839,1028.4372568130493,-2.0324400781093077,-206.8371560277328,1142.7665260750493,-2.1801926668717546,297.0967204230846,8.465599748220283,101.0,1
