time_stamp[s],x_true_pose[mm],y_true_pose[mm],theta_true[rad],x_pose[mm],y_pose[mm],theta[rad],p_err[mm],a_err[mm],num_particles,valid_pose
0.18327665328979492,-1.645155600272119,-1.8584690988063812,0.021944888521936254,-1000.0,0.0,0.0,998.3565741977143,1.2573494941920307,500.0,1
5.224982738494873,49.91380497813225,-1.886516809463501,0.0476205611423629,-949.4965585562999,0.2180891195353895,0.013223341002684314,999.4125795216619,1.9708155409859787,101.0,1
5.424950122833252,82.3320597410202,-0.11082738637924194,0.10301290986609074,-922.1078711886687,1.222707617311227,0.06654601215881288,1004.4408161567532,2.0893993305623195,101.0,1
5.641746759414673,115.59809744358063,3.463171422481537,0.17474399714869082,-883.0251131927201,4.704236097043278,0.12166652019832115,998.6239818185221,3.0411154164590903,101.0,1
5.783385992050171,137.11202144622803,7.7266693115234375,0.23246557917997132,-860.0308263008984,8.51300333409634,0.17614839049555367,997.1431577935256,3.2267372256590483,101.0,1
5.92509913444519,159.87631678581238,13.999756425619125,0.3046570700522933,-837.6252962226223,12.343005056541108,0.22832975634755276,997.5029888574409,4.373232936852681,101.0,1
6.025064706802368,173.32881689071655,18.245894461870193,0.350810554782247,-821.0431188974932,17.40684113920917,0.2884875608906447,994.3722897857068,3.570844516608421,101.0,1
6.116727113723755,186.4008605480194,22.67647162079811,0.4066750571470968,-799.2268231416481,24.351487596330763,0.3440375572494247,985.6291069839493,3.5888643833877367,101.0,1
6.225042104721069,201.79778337478638,30.00514954328537,0.4707329347045518,-786.0953427076579,28.836915948493083,0.3942687706388109,987.8938168298637,4.381073884962844,101.0,1
6.325010299682617,215.74488282203674,37.449028342962265,0.5357165886536712,-779.9190255882535,33.15649931427702,0.46438363205731353,995.6731613919885,4.087077353161181,101.0,1
6.425053358078003,229.37850654125214,46.5252585709095,0.6022765731961871,-760.7085927374054,39.27807774767948,0.5208777845329454,990.1136226655559,4.663807047881082,101.0,1
6.500077247619629,239.31574821472168,54.00223284959793,0.654201371183482,-748.6638423626646,45.50894326605635,0.5831808004503232,988.0160967137174,4.069178961620335,101.0,1
6.600067615509033,251.94457173347473,64.26671147346497,0.7274084719332886,-735.7939568179385,55.89529056448695,0.6561194643544762,987.7740032380616,4.08455925994209,101.0,1
6.658393383026123,258.81969928741455,70.23752480745316,0.7725020922374365,-727.3729834929771,60.45384222916789,0.7087636063252254,986.2412118819508,3.651946235323751,101.0,1
6.7417356967926025,268.11859011650085,79.308420419693,0.8374028934164355,-712.0489698704871,69.94830001746436,0.7671432321147228,980.2122512521407,4.025582062606772,101.0,1
6.816696643829346,275.23961663246155,88.07967603206635,0.8944413020873144,-704.6288651606357,77.66518116586268,0.8125496929782196,979.9238252613452,4.692043579486224,101.0,1
6.9000256061553955,282.7582061290741,99.649079144001,0.9601741677615094,-692.3769010994976,91.00377330340626,0.8715553638137333,975.1734300434746,5.077483451704849,101.0,1
6.983368396759033,291.0688817501068,109.94817316532135,1.0299023793730855,-676.2377256246184,106.03065655671725,0.924470822285026,967.3145401611513,6.04078324863841,101.0,1
7.041763544082642,294.94163393974304,119.86276507377625,1.0759132449575057,-658.2513233113258,120.45202082831241,0.9839732778839229,953.1931393874917,5.267772081888053,101.0,1
7.116699934005737,300.9163737297058,130.367711186409,1.1394686556905687,-654.1232129444186,132.85764290087155,1.0424518065307156,955.0428324816772,5.558655998516908,101.0,1
7.2000627517700195,306.1799108982086,142.71263778209686,1.2071262309087143,-654.5166411170358,139.31193491386531,1.0997778642736484,960.7025709521013,6.150608345812256,101.0,1
7.275096654891968,310.0833296775818,154.0718823671341,1.270962002063893,-643.3664306903047,154.95601926069057,1.1472000457882503,953.4501702992279,7.091037758876959,101.0,1
7.341711044311523,312.97847628593445,164.28455710411072,1.3274959150701808,-638.2253442963699,169.28715698710124,1.2005765552825762,951.2169754035942,7.27194365433216,101.0,1
7.416734457015991,315.4390752315521,175.30998587608337,1.3909779381839047,-628.5439341863513,181.94986363201568,1.2472046402595465,944.0063612319016,8.237603177742725,101.0,1
7.500092506408691,317.6800012588501,188.6686235666275,1.4626531036969812,-616.9286758026858,202.12714732967595,1.3108910787258616,934.7055745530754,8.69532352120416,101.0,1
7.57512903213501,318.7793493270874,201.1280506849289,1.5271839275520482,-610.27843336801,217.08977938857223,1.367209941851709,929.1948882605519,9.165834212515623,101.0,1
7.641754150390625,319.1823363304138,212.5522643327713,1.5818384262471445,-597.5402943006119,233.1467577806715,1.4177485726336108,916.9539326877025,9.401656072974987,101.0,1
7.716728448867798,318.5373544692993,225.65987706184387,1.6441020910234374,-598.3604491535671,241.31271541103484,1.4828390541671381,917.0314027539201,9.239691403328592,101.0,1
7.800076961517334,317.315936088562,240.54290354251862,1.7161181875606148,-604.9831406308331,250.8577514704748,1.5513347452236546,922.35675473497,9.441395779545193,101.0,1
7.875107526779175,316.38118624687195,248.24298918247223,1.771952936303739,-600.619098811488,265.77611307826743,1.6219012609938734,917.1678871562494,8.597327704122673,101.0,1
7.958435297012329,313.4932518005371,257.7824890613556,1.8475062157621365,-598.788824322778,276.9075976005074,1.6604179558654744,912.4825237737435,10.719367688525395,101.0,1
8.016785860061646,310.9646141529083,267.8494453430176,1.8966014400936635,-587.7628660626032,288.8006296757586,1.6878417228313096,898.9716546251428,11.961050731477233,101.0,1
8.075100183486938,306.7927360534668,279.9515128135681,1.942363142727682,-590.1125555581854,292.15445895155585,1.733530068485308,896.9883020504947,11.965253776830203,101.0,1
8.158415794372559,301.49388313293457,292.73366928100586,1.9985304547145828,-583.0361743226404,305.83909883294194,1.7810237675214844,884.6271388704415,12.462215192036734,101.0,1
8.25843095779419,296.50813341140747,306.8787455558777,2.074975342504728,-585.277765473736,323.83891741221754,1.837365794538995,881.9489888321643,13.614024270447795,101.0,1
8.31674575805664,290.2079224586487,315.2161240577698,2.118741247043799,-588.8879409528986,333.15710513769756,1.8970785284198348,879.2789181308761,12.700338252549068,101.0,1
8.400092363357544,281.9769084453583,327.90201902389526,2.178542515193845,-587.389318483503,353.875846956431,1.9573260311395964,869.7541470220152,12.674770895031527,101.0,1
8.475151777267456,274.8488187789917,338.57372403144836,2.2251326132159757,-581.7514824497322,377.2104912215379,2.0051315521539093,857.4712099213837,12.605132287256316,101.0,1
8.575129985809326,267.0291066169739,351.3827323913574,2.289972312245642,-593.6336436857331,382.7015155755338,2.0652762121976753,861.2323936886937,12.87413820579778,101.0,1
8.675145864486694,256.2054693698883,362.8780245780945,2.355114384529189,-605.9055234636187,388.08569828337374,2.126492098357164,862.4794436843158,13.099092100289145,101.0,1
8.75844430923462,246.05438113212585,373.42697381973267,2.403230876325829,-613.7617020378049,399.8372977712488,2.180137595871481,860.2216005709838,12.782303407762573,101.0,1
8.858428478240967,233.02686214447021,384.67150926589966,2.4558478074214207,-619.1121739202987,420.1925834943268,2.242579926395194,852.8790556108967,12.21934948850096,101.0,1
8.95841646194458,220.1768308877945,395.063579082489,2.5057218028724173,-620.456166907988,432.087306796304,2.2916614654107814,841.4479148449717,12.264753897697886,101.0,1
9.075100898742676,204.19447124004364,406.7288637161255,2.556071806621237,-631.6221821359486,438.4272799197661,2.3567558590282554,836.4175199327564,11.419962586728555,101.0,1
9.191751718521118,187.0163083076477,417.29557514190674,2.601970044345656,-646.2439928180783,453.3661862685341,2.416546640562625,834.0406575336624,10.623978459717787,101.0,1
9.350091218948364,162.89635002613068,431.2247633934021,2.650831904855076,-665.9409607214462,475.7468679806032,2.457905199610151,830.0322315935382,11.05388596589865,101.0,1
9.516714811325073,134.54392552375793,445.90142369270325,2.6904578907616523,-693.8930541933896,495.36881564743624,2.5096702528247974,829.9125569779461,10.358368641920997,101.0,1
9.833388090133667,82.07538723945618,467.36907958984375,2.735831399849382,-741.6641486335064,514.3531433135915,2.560588006862141,825.0783751888066,10.040706805721397,101.0,1
10.150171279907227,31.47384151816368,491.35181307792664,2.735721243082521,-773.5807761463307,545.6832162399961,2.5659631520142745,806.8858895732931,9.726422156408006,101.0,1
10.475199937820435,-18.34237389266491,515.0468349456787,2.6918480847478854,-824.5186243736572,576.0655588170588,2.5483841735646955,808.4821776034913,8.219876623236475,101.0,1
10.691796064376831,-51.86320096254349,533.5366725921631,2.63555392478191,-852.1536709168319,599.2602527543088,2.4975513766044397,802.9846980416163,7.906963572619857,101.0,1
10.850128173828125,-75.84305107593536,548.3267903327942,2.5754852306426823,-870.2749949653846,607.6910480352426,2.4474658244028062,796.64686565914,7.334971673315654,101.0,1
10.966825246810913,-92.67112612724304,560.0530505180359,2.524504044169843,-878.9091257990002,621.8245721706569,2.3804800706429803,788.6608352233083,8.251965831793145,101.0,1
11.10850977897644,-113.22950571775436,573.985755443573,2.4456959373315845,-884.6240906367119,644.1621338297786,2.3289784919982432,774.5800989734339,6.68741701314936,101.0,1
11.208475828170776,-126.98668241500854,584.3722224235535,2.3940299667865017,-882.5153113991232,656.6326827189423,2.2567331328528097,758.9763391152042,7.866529124909094,101.0,1
11.333463907241821,-138.2194310426712,595.0319766998291,2.31804993371776,-869.9878138176437,675.3490710506583,2.2039099559828648,736.162890720565,6.539738997926672,101.0,1
11.408465385437012,-148.93785119056702,605.0428748130798,2.2669938840176425,-881.2686710896435,682.7314115133905,2.148465595617884,736.4400440692298,6.7911706782155825,101.0,1
11.466808795928955,-155.3841382265091,612.1138334274292,2.2368436437506696,-875.8097231079342,697.6322914960958,2.102864083825358,725.4835835649114,7.676463324740449,101.0,1
11.566827774047852,-167.62420535087585,622.5250363349915,2.1651499588692773,-876.7013221806923,712.7476002323468,2.0416189896456114,714.7940043452362,7.07780317567652,101.0,1
11.650160789489746,-173.71860146522522,635.0411176681519,2.1064032508691093,-874.6101923922399,727.7292939881602,2.0040078338110616,706.9937201006319,5.866825238908008,101.0,1
11.725125312805176,-181.544691324234,646.1586952209473,2.0551138607735804,-873.8294212026391,739.3011356708394,1.9565188647097513,698.5224845599303,5.649077155566369,101.0,1
11.833451986312866,-190.0203824043274,663.2922291755676,1.9771920641364211,-872.2557207562614,753.2111470955482,1.8848841604155169,688.1355016972152,5.288853298907761,101.0,1
11.908487319946289,-195.53104043006897,675.4542589187622,1.9205324657081058,-886.6501128758098,776.4991356187401,1.8251596168397046,698.4666344254211,5.464461720298434,101.0,1
11.966805458068848,-199.4311958551407,684.7925186157227,1.8758323506452104,-875.4211493009021,785.057705253657,1.7665051571559256,683.3853413785977,6.263986772946149,101.0,1
12.050147294998169,-201.39674842357635,700.4790306091309,1.8173713202443644,-880.9105624700536,800.2764613968754,1.7060397534510188,686.803138222173,6.3788289038375305,101.0,1
12.125160694122314,-205.41290938854218,713.6520743370056,1.756230759355193,-867.758637430904,808.754091883732,1.6572597297511042,669.1384439691267,5.670622290378607,101.0,1
12.208467960357666,-206.97280764579773,727.3860573768616,1.693411620074627,-864.4479215817757,827.8428462148996,1.5926694820286689,665.1053238914702,5.772099329157718,101.0,1
12.291798114776611,-209.12308990955353,742.0324683189392,1.6277544483998425,-865.6713454529215,846.0348348210871,1.547221055124539,664.7346117775775,4.614223544542143,101.0,1
12.350180387496948,-209.3421369791031,752.6811361312866,1.581893363117492,-861.0510758850597,853.7475889946322,1.4957376851764939,659.4990287667654,4.9363567271075635,101.0,1
12.4252028465271,-209.4581127166748,765.725314617157,1.5208300072473133,-856.5392915788398,864.7187083832514,1.4448890280156246,654.6096119420935,4.351097602066401,101.0,1
12.508533954620361,-208.34726095199585,780.3518772125244,1.4539717930504383,-839.4194254527122,865.290472430206,1.3930288167839049,636.7626259173604,3.4917753310383093,101.0,1
12.583529472351074,-206.49459958076477,794.0787672996521,1.3953835517486821,-831.4040656999348,877.456674778507,1.3335707667063785,630.4472351441464,3.5416117028733787,101.0,1
12.650217294692993,-203.50490510463715,806.4498901367188,1.343570113813757,-826.6426603172553,891.9722872152095,1.2744659070479871,628.9791271365623,3.9593793942780042,101.0,1
12.725186586380005,-200.43328404426575,819.5345401763916,1.2846362724073224,-825.515172091104,907.0910746737328,1.2120809221620807,631.1842151839542,4.157115350145827,101.0,1
12.808502435684204,-195.66801190376282,833.6822986602783,1.2194349605733816,-821.073857419793,919.8276867687791,1.159615487792076,631.310937255157,3.4274033230665224,101.0,1
12.883507251739502,-190.65222144126892,846.5564846992493,1.1625215495506618,-813.2031622351914,930.4406922085802,1.096853876101541,628.1769131008131,3.7624805390779175,101.0,1
12.95024061203003,-184.94373559951782,858.5003018379211,1.1117494340567011,-805.4183023170569,939.6698709792781,1.0341901741805164,625.7612858733844,4.443818253063733,101.0,1
13.025240182876587,-182.04066157341003,866.1683797836304,1.05666881825476,-796.0636891303269,951.6373031742679,0.9735010688677117,619.9429128844986,4.7651610314796,101.0,1
13.108565092086792,-174.40208792686462,879.8496723175049,0.9879703552553953,-792.9309320864097,964.0036648676485,0.9201405814110442,624.2273828657891,3.8863597666081837,101.0,1
13.183563470840454,-167.183518409729,892.3067450523376,0.9366641511200243,-789.9208412628558,986.1669927681044,0.8667823285288265,629.7710055056081,4.003933499157603,101.0,1
13.241909980773926,-158.858522772789,900.3859162330627,0.9039851763478942,-776.094787219014,988.4864937324033,0.8129226843921038,623.4920351562221,5.2174964610108,101.0,1
13.341946840286255,-146.27239108085632,915.0686860084534,0.833267731349452,-769.2537760538738,1011.7027317044418,0.7435988175367787,630.4315544216306,5.13765031498851,101.0,1
13.425206899642944,-135.46781241893768,925.8489012718201,0.7807709625478414,-757.5814091655294,1017.5978648013872,0.6831201479478685,628.8427462933247,5.594979542592929,101.0,1
13.525147914886475,-122.12797999382019,938.5414123535156,0.7163430012937557,-745.3230437502032,1027.9775351400522,0.6188743166177982,629.5799453202196,5.584544266623806,101.0,1
13.62514615058899,-107.8144758939743,950.2789378166199,0.6568056786689659,-732.2270994325344,1035.8859555028607,0.5621836352219068,630.2536679079623,5.421443738419991,101.0,1
13.72513461112976,-93.04182231426239,961.7568254470825,0.6022625692859223,-716.754168867637,1040.0951360728295,0.5185926937834228,628.6127441873994,4.793930738678259,101.0,1
13.825130701065063,-77.2332102060318,971.8320369720459,0.551983398570106,-699.9667583427009,1050.5399363653175,0.4640505530006637,627.687824799706,5.038180931704685,101.0,1
13.925138235092163,-61.586376279592514,981.3045859336853,0.5029880000585624,-680.428418037574,1062.1695047533503,0.4173485738871139,624.1030425682112,4.906777679546204,101.0,1
14.066871643066406,-38.52212429046631,993.9262866973877,0.4453571757832459,-656.2798090872082,1076.262348862746,0.3634854742366987,623.2204940936462,4.69090296017185,101.0,1
14.200228691101074,-17.65279844403267,1003.1421184539795,0.39023942342332185,-624.9398261756951,1086.5542015869808,0.31551638411164473,612.9886700941083,4.281314784949235,101.0,1
14.366893529891968,12.863146141171455,1014.7515535354614,0.3529672325082112,-599.0841502213099,1098.17533120331,0.2590879611892517,617.6074968827088,5.378886030339937,101.0,1
14.558557271957397,46.700142323970795,1026.8031358718872,0.3100032143360586,-560.9304450831459,1107.8767351313934,0.21800024283356864,613.0153825554531,5.271381969755061,101.0,1
14.84188985824585,97.19473868608475,1044.9645519256592,0.30060901554534325,-509.54723931125824,1120.7189744697507,0.1970426913606535,611.4528276156035,5.933913275466389,101.0,1
15.100300788879395,144.44704353809357,1058.943748474121,0.2841435906821868,-465.18592609526826,1123.323879941602,0.1859737148295134,613.0229677522382,5.62471956168144,101.0,1
15.383621215820312,195.63379883766174,1072.9873180389404,0.22599460396316182,-416.12659517765513,1130.542572961526,0.1438537889228032,614.461867860797,4.706322027577264,101.0,1
15.558555126190186,227.59395837783813,1079.275131225586,0.16832648607367673,-392.67753053885826,1134.9466212808434,0.09512418585237939,622.7648310300672,4.1941828533299095,101.0,1
15.716873407363892,257.6148509979248,1083.2570791244507,0.10294732709550088,-364.92560787142486,1135.7965319016262,0.0392034821153491,624.7535650377558,3.6522532872988753,101.0,1
15.85854983329773,277.6707410812378,1084.9900245666504,0.028140903495443428,-335.32351508493986,1136.437662042763,-0.018290396258150994,615.1494269643749,2.6603175131877794,101.0,1
15.958529233932495,299.82590675354004,1085.318684577942,-0.02710305143362792,-309.93433021420117,1143.3207562536604,-0.05558348271480429,612.512683056956,1.631808511123774,101.0,1
16.07523202896118,320.66798210144043,1084.932804107666,-0.09061260190659766,-287.9806268630134,1138.0945372702893,-0.1285073408648851,610.9658738974041,2.171208608059848,101.0,1
16.17523717880249,338.51805329322815,1082.8479528427124,-0.1573099631286183,-271.1045102631304,1136.043409012867,-0.2011678709349608,611.9390709492059,2.5128730155772914,101.0,1
16.275243997573853,357.2593033313751,1075.9127140045166,-0.21757434254695684,-258.62852003925207,1133.8167975294357,-0.2601175649204808,618.6038262612589,2.437547088889461,101.0,1
16.375285863876343,376.75952911376953,1072.8404521942139,-0.28947639983183465,-251.18527473421233,1129.536224391736,-0.3237223700475173,630.4990779253794,1.9621495586893376,101.0,1
16.45860981941223,390.91432094573975,1067.2317743301392,-0.34962299590908225,-236.9694328141244,1130.9861228019306,-0.36143148755278703,631.1122128311575,0.6765767335997847,101.0,1
16.54193925857544,404.6192169189453,1062.261700630188,-0.40849104848564116,-216.56330797100486,1127.2632075115257,-0.41887918799285645,624.5741950525158,0.5951965507565468,101.0,1
16.616973876953125,416.724294424057,1055.823564529419,-0.46025326386598625,-197.85241307737277,1124.8916040873887,-0.47245812236053236,618.4455703549661,0.6992868812918839,101.0,1
16.716938972473145,432.7807128429413,1048.198938369751,-0.5483477226343877,-147.7093050641797,1115.0097551990975,-0.5498460631626303,584.3221253172039,0.08584858854170349,101.0,1
16.775312185287476,442.4718916416168,1042.2097444534302,-0.59783476162942,-107.08494137820584,1119.2575044707426,-0.5945487741285943,554.9315904167491,0.18827321533005079,101.0,1
16.858630418777466,455.8851718902588,1032.7547788619995,-0.6639303100353213,-83.09213529001804,1116.4077077044524,-0.6477649316400323,545.4304265066471,0.9262079562820216,101.0,1
16.93361496925354,468.8844084739685,1021.8087434768677,-0.7250528089535428,-64.18024472956836,1108.2106496930985,-0.6937797088108285,540.0214939174231,1.7918166504675044,101.0,1
17.016978979110718,479.9722135066986,1011.0045671463013,-0.7886237288241498,-52.8058437347698,1104.398594194758,-0.7438830326092678,540.9019343340541,2.563453065589674,101.0,1
17.10036277770996,489.956796169281,1000.0555515289307,-0.8624551950893712,-20.785628880255665,1096.7307934374699,-0.796070018145834,519.8114342177903,3.803590461093863,106.0,1
