time_stamp[s],x_true_pose[mm],y_true_pose[mm],theta_true[rad],x_pose[mm],y_pose[mm],theta[rad],p_err[mm],a_err[mm],num_particles,valid_pose
0.191572904586792,-1.6480040503665805,-1.8550045788288116,0.02196737863608993,-1010.3553625493122,16.21131653174849,-0.016079649916038947,1008.8691327661834,2.179934159050724,400.0,1
5.224982738494873,49.91380497813225,-1.886516809463501,0.0476205611423629,-958.0518910889045,20.783019670093413,-0.0064003936183857305,1008.2205871395922,3.095172713058048,377.0,1
5.424950122833252,82.3320597410202,-0.11082738637924194,0.10301290986609074,-938.7895934062834,15.222415113093005,0.027586449826630905,1021.2367692419961,4.321617823873206,320.0,1
5.641746759414673,115.59809744358063,3.463171422481537,0.17474399714869082,-900.9991461184347,24.177948218176056,0.08882200091157859,1016.8082698304449,4.922967751725472,240.0,1
5.783385992050171,137.11202144622803,7.7266693115234375,0.23246557917997132,-879.9790671256317,27.106657608835775,0.14782365459238503,1017.2757081532491,4.8496250487332855,251.0,1
5.92509913444519,159.87631678581238,13.999756425619125,0.3046570700522933,-861.2767221498286,23.40027370585259,0.19854874964686317,1021.1963075984121,6.079558930453018,204.0,1
6.025064706802368,173.32881689071655,18.245894461870193,0.350810554782247,-842.9905864435775,26.5442862271702,0.25386909035987143,1016.3532815412492,5.554336771219743,216.0,1
6.125034332275391,187.70892918109894,23.29055592417717,0.4113187493341987,-828.6058952747318,31.764400017810612,0.3009280641840985,1016.3501505103491,6.324920356658232,216.0,1
6.225042104721069,201.79778337478638,30.00514954328537,0.4707329347045518,-818.7289012499281,42.21467574611479,0.3317506941865661,1020.599719067769,7.963095808952684,204.0,1
6.325010299682617,215.74488282203674,37.449028342962265,0.5357165886536712,-805.9657360756936,38.378354718944436,0.3868032137627076,1021.7110415454539,8.532107894301621,119.0,1
6.425053358078003,229.37850654125214,46.5252585709095,0.6022765731961871,-811.4676867062527,43.37290086793987,0.4319290332030222,1040.8509669289401,9.760195092044349,156.0,1
6.500077247619629,239.31574821472168,54.00223284959793,0.654201371183482,-794.3254882205571,42.90419340635821,0.4731246010585844,1033.70081364916,10.374934696017224,106.0,1
6.600067615509033,251.94457173347473,64.26671147346497,0.7274084719332886,-775.6315338245699,49.49471136648732,0.5314903448584808,1027.682278090363,11.225281811494233,101.0,1
6.658393383026123,258.81969928741455,70.23752480745316,0.7725020922374365,-756.178858560444,54.47505608296918,0.5784665305770629,1015.1209424760791,11.117418758589857,101.0,1
6.7417356967926025,268.11859011650085,79.308420419693,0.8374028934164355,-751.5465236390544,59.2108662952738,0.636473810411065,1019.8631554732789,11.512388437641524,106.0,1
6.816696643829346,275.23961663246155,88.07967603206635,0.8944413020873144,-731.1313431946467,64.89916775900718,0.688658869685487,1006.63789157131,11.790464874560875,101.0,1
6.9000256061553955,282.7582061290741,99.649079144001,0.9601741677615094,-712.1086827130827,76.8762666497977,0.7455710125591158,995.1274930898896,12.295855063288128,101.0,1
6.983368396759033,291.0688817501068,109.94817316532135,1.0299023793730855,-693.2898775547411,93.34083637820697,0.807286467188142,984.4988423839513,12.754952220652218,101.0,1
7.041763544082642,294.94163393974304,119.86276507377625,1.0759132449575057,-679.9205827825012,108.18339316257308,0.8637603304764377,974.9321767799278,12.155466611165084,101.0,1
7.116699934005737,300.9163737297058,130.367711186409,1.1394686556905687,-660.0531122401761,120.79215873858601,0.9131957242953054,961.0171924424142,12.964483987001808,101.0,1
7.2000627517700195,306.1799108982086,142.71263778209686,1.2071262309087143,-647.4007393204632,130.35403850828337,0.9752335206120347,953.6607318367868,13.286473599849629,101.0,1
7.275096654891968,310.0833296775818,154.0718823671341,1.270962002063893,-648.8460831878062,137.66808487937806,1.04229238630518,959.0697072842918,13.10180388585247,101.0,1
7.341711044311523,312.97847628593445,164.28455710411072,1.3274959150701808,-623.216219989097,155.98624920923564,1.0850171611012018,936.231473113042,13.893009224013555,101.0,1
7.416734457015991,315.4390752315521,175.30998587608337,1.3909779381839047,-604.2128714356049,173.39433339542188,1.1574545533433245,919.6539418352527,13.379904368974556,101.0,1
7.500092506408691,317.6800012588501,188.6686235666275,1.4626531036969812,-602.8873069943826,191.00591511690803,1.2339688011847871,920.5702754034552,13.10264537484169,101.0,1
7.57512903213501,318.7793493270874,201.1280506849289,1.5271839275520482,-572.212764647583,208.60768945487817,1.2800331792342703,891.0235081978369,14.160694782108708,101.0,1
7.641754150390625,319.1823363304138,212.5522643327713,1.5818384262471445,-562.594703873527,220.29318735882072,1.3520237804467024,881.8110174635592,13.167409274659246,101.0,1
7.716728448867798,318.5373544692993,225.65987706184387,1.6441020910234374,-547.5895783676289,230.17188392664028,1.4079020264214674,866.1386851950747,13.53326682241027,101.0,1
7.800076961517334,317.315936088562,240.54290354251862,1.7161181875606148,-507.28715346484444,251.56934745988391,1.4346301548578795,824.6768080687647,16.128076257307235,101.0,1
7.875107526779175,316.38118624687195,248.24298918247223,1.771952936303739,-508.6589476349149,262.8007900461705,1.4943459483204804,825.1685597995503,15.905708774779676,101.0,1
7.958435297012329,313.4932518005371,257.7824890613556,1.8475062157621365,-487.37405429336144,283.21849678562495,1.5388522270308742,801.2711354211178,17.6845708841798,101.0,1
8.016785860061646,310.9646141529083,267.8494453430176,1.8966014400936635,-499.2268921408081,289.1992287226782,1.6075391078417955,810.4727571737619,16.56205165424037,101.0,1
8.075100183486938,306.7927360534668,279.9515128135681,1.942363142727682,-476.7862339336057,299.9446188390156,1.6325725888416995,783.833991668227,17.749691270686895,101.0,1
8.158415794372559,301.49388313293457,292.73366928100586,1.9985304547145828,-466.44662469673943,319.7329623793585,1.6785715761047257,768.414982541015,18.33229336208344,101.0,1
8.25843095779419,296.50813341140747,306.8787455558777,2.074975342504728,-463.55645365404644,344.92538488611444,1.7459184772776501,761.016243765732,18.853569597316692,101.0,1
8.31674575805664,290.2079224586487,315.2161240577698,2.118741247043799,-448.5622328509588,363.04034471171667,1.7946911110244936,740.3164853340354,18.566705144546464,101.0,1
8.400092363357544,281.9769084453583,327.90201902389526,2.178542515193845,-435.9058069588207,382.15364060059653,1.8239283146727387,719.9297406829218,20.317897045265273,101.0,1
8.475151777267456,274.8488187789917,338.57372403144836,2.2251326132159757,-417.4716999344234,399.92871188183017,1.8625214346389984,695.033909363948,20.776090136725408,101.0,1
8.575129985809326,267.0291066169739,351.3827323913574,2.289972312245642,-403.12500062544706,421.28543708778636,1.9098155768745,673.7899639930549,21.78137649023813,101.0,1
8.675145864486694,256.2054693698883,362.8780245780945,2.355114384529189,-400.17293400827174,436.1137983630649,1.9647275083142837,660.4514266644793,22.367520384410174,101.0,1
8.75844430923462,246.05438113212585,373.42697381973267,2.403230876325829,-396.773008936457,444.9788883128127,2.0145952935289677,646.7972865512123,22.267178662867213,101.0,1
8.858428478240967,233.02686214447021,384.67150926589966,2.4558478074214207,-391.6764056968965,464.7049319235238,2.0579818198936204,629.8091152039451,22.796041897147614,101.0,1
8.95841646194458,220.1768308877945,395.063579082489,2.5057218028724173,-408.08869054984484,469.8729134330624,2.117849351196111,632.7037236600436,22.223454470444327,101.0,1
9.075100898742676,204.19447124004364,406.7288637161255,2.556071806621237,-414.49816323937574,489.9099492573327,2.1679067752664376,624.2592962470789,22.24021805119328,119.0,1
9.191751718521118,187.0163083076477,417.29557514190674,2.601970044345656,-421.7764061363011,510.26038831915776,2.217199075706624,615.8498401794975,22.045752582177098,119.0,1
9.358396053314209,161.51276230812073,431.89918994903564,2.653396168267666,-434.3062434205292,542.801660700144,2.2569445579507046,606.0525106013318,22.715004052327046,101.0,1
9.516714811325073,134.54392552375793,445.90142369270325,2.6904578907616523,-456.22214558370007,568.0833084919002,2.310174713639578,603.2685668463312,21.7886210689208,101.0,1
9.833388090133667,82.07538723945618,467.36907958984375,2.735831399849382,-488.56223216667416,604.1160780884745,2.357614396393448,586.7938601245587,21.67023803810989,101.0,1
10.150171279907227,31.47384151816368,491.35181307792664,2.735721243082521,-530.4186575248021,637.7267581593308,2.3747718337904846,580.6451627528928,20.680877770173826,101.0,1
10.475199937820435,-18.34237389266491,515.0468349456787,2.6918480847478854,-567.3339793350613,672.6885654668462,2.342560206184555,571.176590948831,20.012721276756853,101.0,1
10.691796064376831,-51.86320096254349,533.5366725921631,2.63555392478191,-590.3689249042534,711.1790539110413,2.2735044800227238,567.0495836861419,20.74390515975621,101.0,1
10.850128173828125,-75.84305107593536,548.3267903327942,2.5754852306426823,-597.8579885180341,722.7959393579395,2.217546718761615,550.3990178717951,20.508366055978424,101.0,1
10.966825246810913,-92.67112612724304,560.0530505180359,2.524504044169843,-617.8753383387126,749.9089400732568,2.1729797052437627,558.4664030391394,20.14086101659073,101.0,1
11.10850977897644,-113.22950571775436,573.985755443573,2.4456959373315845,-619.5107014439942,754.7386201570835,2.1219542900438353,537.5799914879011,18.549030042200947,101.0,1
11.208475828170776,-126.98668241500854,584.3722224235535,2.3940299667865017,-618.6180579842115,770.9611300484397,2.0502915352003526,525.8486758495404,19.694761386332733,101.0,1
11.333463907241821,-138.2194310426712,595.0319766998291,2.31804993371776,-627.966660694145,794.0249094518975,1.9928508080705851,528.6308127952462,18.632537400927674,101.0,1
11.408465385437012,-148.93785119056702,605.0428748130798,2.2669938840176425,-630.3099111190311,796.8640981802657,1.953501116160453,518.1837915391185,17.96181250609143,101.0,1
11.466808795928955,-155.3841382265091,612.1138334274292,2.2368436437506696,-631.7547860636778,800.3258104581519,1.9092848095358521,512.2038094534412,18.76773874273447,101.0,1
11.566827774047852,-167.62420535087585,622.5250363349915,2.1651499588692773,-635.8256967447122,807.7882383993491,1.8635460340605652,503.52268129901717,17.28063197612023,101.0,1
11.650160789489746,-173.71860146522522,635.0411176681519,2.1064032508691093,-637.7153884947002,824.0917471348419,1.8041646427490639,501.0320936581085,17.316996651187015,101.0,1
11.725125312805176,-181.544691324234,646.1586952209473,2.0551138607735804,-641.5549949794978,822.7314538031027,1.769071179512122,492.7346329844495,16.38903839688741,101.0,1
11.833451986312866,-190.0203824043274,663.2922291755676,1.9771920641364211,-641.1475267353053,851.4467206842015,1.6883151527512466,488.79219820604294,16.551427821145182,101.0,1
11.908487319946289,-195.53104043006897,675.4542589187622,1.9205324657081058,-645.5118868215815,859.771698559114,1.635767689562229,486.26708779722765,16.315819827146395,101.0,1
11.966805458068848,-199.4311958551407,684.7925186157227,1.8758323506452104,-643.7347525901489,873.9540496217751,1.5832459176667717,482.8951597810154,16.76396775245186,101.0,1
12.050147294998169,-201.39674842357635,700.4790306091309,1.8173713202443644,-646.3321685672294,882.0418041035217,1.5260730259509576,480.5544389737592,16.690162842372004,101.0,1
12.125160694122314,-205.41290938854218,713.6520743370056,1.756230759355193,-646.3169156261562,895.6044835381828,1.480028893854368,476.972768541864,15.825201186837283,101.0,1
12.208467960357666,-206.97280764579773,727.3860573768616,1.693411620074627,-647.2023413793669,910.6012227145803,1.421433937725842,476.83313557365466,15.583173320335124,101.0,1
12.291798114776611,-209.12308990955353,742.0324683189392,1.6277544483998425,-644.360618159155,910.2259121317319,1.381830202483196,466.6055513369185,14.090421370961208,101.0,1
12.350180387496948,-209.3421369791031,752.6811361312866,1.581893363117492,-637.0007844624694,924.5451424519025,1.3112445215910595,460.9003747404366,15.507036349569638,101.0,1
12.4252028465271,-209.4581127166748,765.725314617157,1.5208300072473133,-627.9888213785961,932.197714047504,1.2385673399100896,450.42314978822634,16.172459552528075,101.0,1
12.508533954620361,-208.34726095199585,780.3518772125244,1.4539717930504383,-625.0520883766915,937.1526969805977,1.1935494805432025,445.22961523127054,14.921099397701603,101.0,1
12.583529472351074,-206.49459958076477,794.0787672996521,1.3953835517486821,-624.6162417715599,948.8547677572634,1.1520916760094329,445.84898562852175,13.939597669680248,101.0,1
12.650217294692993,-203.50490510463715,806.4498901367188,1.343570113813757,-623.6191437252438,953.0248817511194,1.1199105825628068,444.9496619377676,12.814747188553786,101.0,1
12.725186586380005,-200.43328404426575,819.5345401763916,1.2846362724073224,-622.4922564039965,956.4222978244582,1.0781142150976541,443.70264180334533,11.832842260202902,101.0,1
12.808502435684204,-195.66801190376282,833.6822986602783,1.2194349605733816,-611.0486737090563,958.8188071761145,1.0146237479861102,433.8205158419061,11.734818078207335,106.0,1
12.883507251739502,-190.65222144126892,846.5564846992493,1.1625215495506618,-607.1923456719077,972.5546743022962,0.9446059462533021,435.17952488291695,12.485644358985837,101.0,1
12.95024061203003,-184.94373559951782,858.5003018379211,1.1117494340567011,-606.4142848226338,991.1210508668242,0.8735400528716789,441.8435095544828,13.648392182324814,106.0,1
13.025240182876587,-182.04066157341003,866.1683797836304,1.05666881825476,-596.6659604261991,994.3443883304947,0.8437640956999967,433.98528502216584,12.19854204079168,144.0,1
13.108565092086792,-174.40208792686462,879.8496723175049,0.9879703552553953,-584.6750434169327,1003.8696176192091,0.8003516798903388,428.60803170168555,10.749758256252846,101.0,1
13.183563470840454,-167.183518409729,892.3067450523376,0.9366641511200243,-577.3869446798195,1007.5336365704939,0.7378213076632802,426.0799073561889,11.392855716451953,106.0,1
13.241909980773926,-158.858522772789,900.3859162330627,0.9039851763478942,-557.12927895764,1008.3581021755355,0.6911811996710098,412.6470503581105,12.192769727185885,132.0,1
13.341946840286255,-146.27239108085632,915.0686860084534,0.833267731349452,-537.4024014475876,1022.9532324330877,0.6259313789112654,405.73607230159905,11.879497934345068,144.0,1
13.425206899642944,-135.46781241893768,925.8489012718201,0.7807709625478414,-525.9979158396053,1035.1548248119934,0.5742874917966815,405.5385882979911,11.83063141325444,106.0,1
13.525147914886475,-122.12797999382019,938.5414123535156,0.7163430012937557,-500.13493618201323,1040.429898789379,0.522476594020398,391.4977938569432,11.107726926127722,119.0,1
13.62514615058899,-107.8144758939743,950.2789378166199,0.6568056786689659,-470.59407675681086,1050.717198578504,0.44517488568281777,376.42646430222095,12.125551253113112,106.0,1
13.72513461112976,-93.04182231426239,961.7568254470825,0.6022625692859223,-450.9678530611767,1061.1998464648482,0.38822232927083467,371.48345577613657,12.26360239883168,119.0,1
13.825130701065063,-77.2332102060318,971.8320369720459,0.551983398570106,-431.66109351107156,1072.2859492300568,0.34952908847837566,368.38853531567867,11.599777512488979,101.0,1
13.925138235092163,-61.586376279592514,981.3045859336853,0.5029880000585624,-416.0725028728107,1080.678354842545,0.29939251440425796,368.15154473968266,11.66516205590794,101.0,1
14.066871643066406,-38.52212429046631,993.9262866973877,0.4453571757832459,-382.31329126166787,1091.015369988618,0.23883433099407544,357.23753523636344,11.832887379454833,101.0,1
14.200228691101074,-17.65279844403267,1003.1421184539795,0.39023942342332185,-350.55082604303203,1101.9711104321336,0.17538894489232054,347.2582129118362,12.310025646192479,101.0,1
14.366893529891968,12.863146141171455,1014.7515535354614,0.3529672325082112,-319.76996176452764,1101.188978413806,0.12662438761728487,343.68039352660765,12.968489735234309,101.0,1
14.558557271957397,46.700142323970795,1026.8031358718872,0.3100032143360586,-274.7546857482512,1103.3177318227154,0.06806348773310864,330.4356062600704,13.86212523089804,101.0,1
14.84188985824585,97.19473868608475,1044.9645519256592,0.30060901554534325,-211.0375672177917,1101.5942670254772,0.05765108525896076,313.3912555179346,13.920464004643398,101.0,1
15.100300788879395,144.44704353809357,1058.943748474121,0.2841435906821868,-157.2863870856088,1108.7546052242333,0.06482114246346005,305.8172405312179,12.566250635409583,101.0,1
15.383621215820312,195.63379883766174,1072.9873180389404,0.22599460396316182,-102.51413028753282,1105.0267681355276,0.01462664645491555,299.86449273652545,12.110491889523031,101.0,1
15.558555126190186,227.59395837783813,1079.275131225586,0.16832648607367673,-65.48036569148155,1101.2200538520126,-0.030180226276740045,293.89477548566333,11.373596822696337,101.0,1
15.716873407363892,257.6148509979248,1083.2570791244507,0.10294732709550088,-38.57175034925492,1100.1297124607083,-0.08474181601743885,296.666797220877,10.753795760798347,101.0,1
15.85854983329773,277.6707410812378,1084.9900245666504,0.028140903495443428,-4.2903260454979275,1094.0205256829513,-0.14935339516819227,282.10564213723035,10.169674201060854,101.0,1
15.958529233932495,299.82590675354004,1085.318684577942,-0.02710305143362792,20.016199423869814,1095.2484397857309,-0.19455665097757724,279.9858431321168,9.594384518142101,106.0,1
16.07523202896118,320.66798210144043,1084.932804107666,-0.09061260190659766,48.78969454104775,1088.3789912574046,-0.23460454508253817,271.90012771722377,8.250130627868966,101.0,1
16.17523717880249,338.51805329322815,1082.8479528427124,-0.1573099631286183,71.03218130356748,1093.8218862657377,-0.2744014416831397,267.71088683287076,6.708847538120664,106.0,1
16.275243997573853,357.2593033313751,1075.9127140045166,-0.21757434254695684,89.13651923634836,1091.1946264276717,-0.3008704088384411,268.55793452843153,4.772513048543969,101.0,1
16.375285863876343,376.75952911376953,1072.8404521942139,-0.28947639983183465,108.97148028289185,1088.3067759396122,-0.34355970372984523,268.23431224741927,3.0987450554794402,101.0,1
16.45860981941223,390.91432094573975,1067.2317743301392,-0.34962299590908225,117.68117468746871,1087.9900859279524,-0.3782061404703716,274.02054615408974,1.637693548574193,101.0,1
16.54193925857544,404.6192169189453,1062.261700630188,-0.40849104848564116,142.51079676777178,1085.0524129225212,-0.424447405657402,263.0973973283202,0.9142319223452001,101.0,1
16.616973876953125,416.724294424057,1055.823564529419,-0.46025326386598625,158.41266989512636,1083.82447976564,-0.45164539987868507,259.8248383446843,0.49319427709501,101.0,1
16.716938972473145,432.7807128429413,1048.198938369751,-0.5483477226343877,173.8590307741171,1076.3972271458188,-0.5076891186131923,260.45264624351165,2.329566411308132,101.0,1
16.775312185287476,442.4718916416168,1042.2097444534302,-0.59783476162942,204.01237554276645,1066.3293111376465,-0.5601522353002936,239.67622809768233,2.159049720049545,101.0,1
16.858630418777466,455.8851718902588,1032.7547788619995,-0.6639303100353213,231.10991242749245,1056.0250689630036,-0.6109033424177736,225.9765998238287,3.038221444862373,101.0,1
16.93361496925354,468.8844084739685,1021.8087434768677,-0.7250528089535428,252.16766967311193,1050.1525999080004,-0.664442753391857,218.5623917188576,3.472700379738022,101.0,1
17.016978979110718,479.9722135066986,1011.0045671463013,-0.7886237288241498,259.5808708588461,1045.3740017054165,-0.7211253431677138,223.0551544933146,3.8673726220601528,101.0,1
17.10036277770996,489.956796169281,1000.0555515289307,-0.8624551950893712,281.90867807933785,1041.1876844494036,-0.7623038874323534,212.07515601633867,5.738247241463361,101.0,1
