time_stamp[s],x_true_pose[mm],y_true_pose[mm],theta_true[rad],x_pose[mm],y_pose[mm],theta[rad],p_err[mm],a_err[mm],num_particles,valid_pose
0.17479944229125977,5.868942476809025,8.484244346618652,0.036130188670878735,-500.0,0.0,0.0,505.94008475780834,2.0701073238527328,1000.0,1
5.208055734634399,55.94928935170174,11.391330510377884,0.0605257753560111,-450.10594256443466,0.14866086500500633,0.017845181738975677,506.1801017132633,2.4454178813691305,101.0,1
5.408036947250366,87.97574788331985,12.742513790726662,0.11593455352952498,-423.80532376385224,1.1693749408267955,0.07097280324875968,511.9119092570195,2.5761185306089955,101.0,1
5.624660968780518,121.2921068072319,16.42104610800743,0.18905871747733935,-391.120151268356,4.435587034170149,0.1233402127035426,512.5524104472962,3.7653929594489064,101.0,1
5.749687194824219,141.49980247020721,20.542630925774574,0.24155064856194214,-366.6024940111643,7.426738163763533,0.16935923835270364,508.27155176400356,4.13626312208701,101.0,1
5.908015966415405,162.99152374267578,26.135507971048355,0.3154997952365116,-341.6479415125651,12.11297054697457,0.2239087645223223,504.83425146171,5.247779501176142,101.0,1
6.0080952644348145,177.93872952461243,31.351253390312195,0.36710932836701615,-325.59445960335137,15.358579485108072,0.2819973698559557,503.78709607533216,4.876556008776331,101.0,1
6.124694585800171,194.41445171833038,38.09502348303795,0.4353333986424769,-309.54562579128816,21.230697906169762,0.3514030673550867,504.2421692011323,4.8088537559022635,101.0,1
6.2246904373168945,208.9182287454605,45.07526010274887,0.4966851335932558,-294.2280824018147,26.596580447832398,0.41275200841862986,503.4855231512617,4.809013833849305,101.0,1
6.324601173400879,222.72461652755737,53.3440001308918,0.5620832459513272,-272.9092326805377,34.9482630540075,0.46773583767925203,495.9751159316711,5.405708301987578,101.0,1
6.407963752746582,233.9656949043274,60.823116451501846,0.6170309722568567,-257.7147232085246,42.57879282967506,0.5225992505311279,492.0187891737946,5.410539107038102,101.0,1
6.507925748825073,246.48424983024597,70.77522575855255,0.6871609736169584,-243.2560131754817,49.82869746201451,0.5764489484958312,490.1880070509651,6.343331780786936,101.0,1
6.582951068878174,255.60635328292847,78.35850119590759,0.7435797023624579,-232.8666390997023,55.84238580035888,0.6275448767832444,488.99165610442407,6.6483057822255756,101.0,1
6.6413140296936035,262.5426948070526,84.49484407901764,0.7876999178016185,-215.76161029854484,67.20257602738182,0.6926502949548002,478.61678910890504,5.445942233432932,101.0,1
6.7246034145355225,271.9394266605377,92.91587769985199,0.852603720432126,-206.25802879860834,78.76874957399885,0.7516546551960178,478.40667600046226,5.783955383819816,101.0,1
6.8079187870025635,279.10080552101135,104.84923422336578,0.9138465315314437,-199.99944930577564,85.87124192811758,0.8117064443736467,479.47598309680825,5.8521959132401475,101.0,1
6.882937431335449,287.2667908668518,114.30592834949493,0.9758327709574471,-190.22029737308867,94.60654454030785,0.8549995006811595,477.893278000767,6.9232364115948615,101.0,1
6.966279029846191,293.68674755096436,126.20188295841217,1.0415291590459794,-186.07152653887044,100.5790089603242,0.9188759168895342,480.4420185928568,7.02751311916038,101.0,1
7.0246264934539795,298.08181524276733,134.84996557235718,1.0893399690698797,-179.47620777360967,110.54286672363207,0.9733591401839856,478.17622316647254,6.645211999590718,101.0,1
7.099698066711426,304.0449321269989,144.62926983833313,1.1518190895924119,-166.06045024873268,117.36629241083878,1.0277902124902643,470.89525425177607,7.106331195699834,101.0,1
7.1829705238342285,308.0882728099823,157.64158964157104,1.2198324550158333,-160.1482221716232,128.94784948532336,1.0920393919092668,469.1148536945012,7.3220031670552475,101.0,1
7.266338109970093,312.8492832183838,169.63326930999756,1.2902686702217947,-151.92745371653922,138.33205415813546,1.1428017789035625,465.8295624644896,8.449230490449107,101.0,1
7.324553966522217,314.8389756679535,178.62990498542786,1.338060577508197,-145.4829060964825,145.59914535198413,1.213232186203154,461.5054343267409,7.152139985186505,101.0,1
7.399579763412476,317.6366090774536,190.27578830718994,1.4025537528196221,-136.05163358741035,155.80597081770182,1.2646390847134998,454.9958130028134,7.90192841542831,101.0,1
7.482921600341797,319.5038437843323,204.49960231781006,1.4719581094621972,-123.76378992727527,166.34506861802114,1.3111851738335307,444.9066908219478,9.211610671451052,101.0,1
7.5662171840667725,320.61684131622314,218.4954583644867,1.5433460841822455,-112.71333869612226,178.63496008716885,1.3541572871256773,435.1596307476691,10.839719602498413,101.0,1
7.6245033740997314,320.2894926071167,228.47385704517365,1.590226112479007,-100.30019619906763,196.22282286518467,1.403980423254275,421.8243894510627,10.671091945082294,101.0,1
7.699525594711304,319.7110891342163,241.8816089630127,1.6550916561823523,-95.78757354687968,204.78674664656788,1.448207372749589,417.1512525452311,11.853596288285637,101.0,1
7.782864093780518,319.9460208415985,249.09386038780212,1.7174876481746661,-93.60635420231057,221.79826603550558,1.5058332553247993,414.45218828654185,12.126903425701279,101.0,1
7.866281032562256,316.8518841266632,259.92903113365173,1.793130416118758,-88.5050592361376,238.18362928011194,1.5680535914032352,405.93979114421,12.895952122405273,101.0,1
7.94127082824707,313.9805793762207,275.3329873085022,1.8595076707440468,-78.36395791284012,255.71268646933814,1.624523676970348,392.83481534302246,13.463591096361359,101.0,1
7.999576807022095,311.3477826118469,285.34936904907227,1.8977266880173072,-79.11023808368724,266.70149744855337,1.686787284906099,390.90306859975357,12.085937531280976,101.0,1
8.082944393157959,306.2678873538971,298.16240072250366,1.9581215493814967,-76.52716074144577,285.803970808529,1.7355282711696987,382.9944903471256,12.753655389517373,101.0,1
8.157969236373901,303.39980125427246,308.73796343803406,2.0191189808699774,-77.1359239446785,302.92325135431156,1.7953370566534144,380.5801479705794,12.821759788925494,101.0,1
8.241262435913086,294.87544298171997,321.34413719177246,2.08179391120469,-79.73573938759209,312.9186297387776,1.862315795510736,374.7059208659165,12.575169724747578,101.0,1
8.299555540084839,290.5699610710144,330.2493393421173,2.1240795177168628,-86.16525817966526,327.9817146382321,1.911054692483503,376.74204377220144,12.205423417383475,101.0,1
8.382856607437134,282.67166018486023,342.24045276641846,2.1785783200840383,-91.29819170531664,342.4851195022215,1.969416781691458,373.96993192577986,11.98407338635838,101.0,1
8.482860326766968,272.91762828826904,355.6472659111023,2.2462786308479736,-96.39032206122204,350.828788771564,2.034635801471662,369.33938310622443,12.126240887470045,101.0,1
8.582928657531738,266.10809564590454,368.5276210308075,2.3144744527677887,-98.29611088944255,368.4696806113333,2.1166644429231414,364.4042111416224,11.333678709539559,101.0,1
8.657987117767334,256.93225860595703,377.29671597480774,2.3595361912880626,-104.91038785141521,382.8694929295173,2.1802437918292674,361.88555737727614,10.272697787762606,101.0,1
8.75797724723816,244.63677406311035,389.8520767688751,2.4166573180345705,-114.6495126091575,395.99330623052316,2.2392213960281384,359.33876842061954,10.166329464981006,101.0,1
8.857975959777832,231.41244053840637,400.33164620399475,2.467433474166419,-124.61762702219599,408.2014308707102,2.3062985494233113,356.1170348606025,9.232351119938203,101.0,1
8.98287582397461,216.001957654953,412.84066438674927,2.5283076305895675,-138.31683307059376,425.29980635226633,2.3641084322684693,354.53777750718007,9.407921063230518,101.0,1
9.082856893539429,201.69275999069214,422.2542643547058,2.571705720458661,-150.13256131246743,430.980488935002,2.4314320374034053,351.9335217132594,8.037090015821914,101.0,1
9.241232872009277,178.02506685256958,436.73959374427795,2.62887888278669,-169.36685960828393,440.69581532169747,2.511871561569407,347.4144531526469,6.704025677881826,101.0,1
9.37455701828003,156.4941704273224,448.6443102359772,2.670900958702258,-191.23895588145288,450.68141146070064,2.5731725182127714,347.73909316307015,5.599427178443017,101.0,1
9.557822704315186,125.71492791175842,464.7059738636017,2.7162736319003553,-208.644416004733,452.61792844157975,2.626882984571882,334.57778125032667,5.121706819863911,101.0,1
9.874475240707397,75.79092681407928,486.1491024494171,2.7450530388725856,-259.2888533129688,477.99026552947623,2.668613149787487,335.17909491774253,4.379683031024276,101.0,1
10.216162204742432,19.097207114100456,509.5067620277405,2.7331223681578396,-314.0323522614411,495.90040817791754,2.6883624516707263,333.4073127494792,2.5645543060696223,101.0,1
10.53279185295105,-29.411548748612404,535.0672006607056,2.682097335705724,-353.79531937189864,518.7985685503807,2.6347830229607605,324.79147007660447,2.71091043084844,101.0,1
10.732794284820557,-59.79480594396591,551.2545108795166,2.620803980831781,-375.100114425388,536.256929040805,2.577942619127442,315.6617889729031,2.455775129842288,101.0,1
10.891105651855469,-84.40528064966202,564.7013187408447,2.550314309055846,-403.15455647034025,560.6376819680544,2.5170939617733543,318.7751777978141,1.9033856932456668,106.0,1
11.016157150268555,-103.93372178077698,577.1992206573486,2.486201797862702,-419.1514720535683,576.1745023729728,2.4531034213035383,315.2194158591792,1.8963972855748161,101.0,1
11.116135120391846,-117.9303228855133,588.729202747345,2.4456403562433238,-431.8738995664539,589.6280630555981,2.4100657605316447,313.94486345388003,2.0382741921634095,101.0,1
11.249449491500854,-127.57590413093567,596.403956413269,2.371427452762225,-446.8607411471055,602.0106189016926,2.3636851709252116,319.3340599007585,0.44360007306167565,106.0,1
11.332804203033447,-139.01257514953613,605.6361198425293,2.313240922333505,-448.27291097443947,610.4815448563717,2.28870574570449,309.2982920387644,1.4057620704505833,119.0,1
11.432836055755615,-152.50706672668457,621.2425231933594,2.2560013211147276,-462.08151484886804,621.0498075651443,2.246980554419234,309.57450810663954,0.5168518596239683,101.0,1
11.532811880111694,-164.864644408226,631.3802003860474,2.1900715581213808,-461.8236912521634,625.6178614005361,2.2042962312863983,297.0149492080218,0.8150137373085028,101.0,1
11.632802248001099,-173.34941029548645,645.6732749938965,2.1145908470683166,-472.072046755307,638.46477803801,2.131625066955341,298.8095981756094,0.9759889068243096,101.0,1
11.716125249862671,-182.17717111110687,658.5667133331299,2.05676969788989,-458.3072082978485,626.8735687026775,2.068500692036679,277.9428949502363,0.6721364541036766,101.0,1
11.79110860824585,-188.48679959774017,670.4193353652954,2.0060655948731294,-451.47718286450316,625.5264161299561,1.9972134925490452,266.79451997421086,0.5071881029879705,101.0,1
11.891139030456543,-196.17554545402527,685.6562495231628,1.9309678167689799,-459.3915881175581,646.8229365119814,1.9516049919595675,266.06523883227425,1.1824230394927604,101.0,1
11.949481725692749,-199.21600818634033,695.3986883163452,1.8900802852610805,-465.4232366328326,665.0834811626781,1.8880989709627796,267.92778926780375,0.11352094718156873,101.0,1
12.032831192016602,-201.72101259231567,710.6168866157532,1.8269593558851498,-467.22360826748604,674.5024223656457,1.8328920074699844,267.9475374738967,0.33991589713262055,101.0,1
12.107837438583374,-205.99845051765442,723.8830924034119,1.771378845387437,-463.04843435393104,683.048002064609,1.7698243243773712,260.27331556117747,0.08906749304118482,101.0,1
12.191232442855835,-207.80417323112488,738.4588122367859,1.7058325258794649,-459.4985462958851,688.7877776152992,1.7046760073426943,256.54876556481736,0.06626363108559905,101.0,1
12.274557113647461,-209.4842493534088,752.8831958770752,1.6415553102846132,-460.5670577206954,705.8172181569652,1.6408494377081226,255.4560293208079,0.040443519506935255,101.0,1
12.33288836479187,-210.06834506988525,763.6071443557739,1.5960264367309231,-460.86784689594674,725.325795497908,1.5798340716963544,253.7042604817236,0.9277541768159964,101.0,1
12.40789008140564,-210.27693152427673,776.8268585205078,1.538465190848515,-455.0742268384608,738.2577580205207,1.515429702949287,247.8170520898793,1.3198362356504463,101.0,1
12.491113424301147,-209.48250591754913,791.2462949752808,1.4717270405303433,-442.72407570892216,740.7927913987756,1.4666978620315332,238.636095136273,0.28815070239975943,101.0,1
12.566128253936768,-207.97473192214966,804.4865727424622,1.4118003017983374,-440.53208279975615,748.7665356494588,1.4137117656027534,239.1393819111688,0.10951880868505552,101.0,1
12.632826089859009,-205.84487915039062,816.5284395217896,1.3600202033124318,-432.8220326717052,758.4485097796507,1.3556680508588173,234.2902184460337,0.24935996738961852,101.0,1
12.707797765731812,-202.92583107948303,829.5191526412964,1.3001147910901627,-429.4537504446944,777.405366929485,1.293835850089901,232.44514387947166,0.35975681912664786,101.0,1
12.791086435317993,-198.1065273284912,844.1190719604492,1.2357301909786265,-421.37685243189054,789.5510766927692,1.2381226119986721,229.8419112766668,0.13707562726699993,101.0,1
12.866098880767822,-192.83390045166016,857.737123966217,1.1745180027656696,-413.0158798985706,802.9055521542201,1.1701724071149446,226.9066004781127,0.24898429025694963,101.0,1
12.932783603668213,-191.0843849182129,863.8322949409485,1.1285563978620807,-400.7772375014869,820.4394669346924,1.1026408774050538,214.1355410642783,1.4848499460725904,101.0,1
13.032781839370728,-182.20210075378418,881.6061019897461,1.0473172973355955,-388.65008633223465,845.3216351743998,1.0271221148228231,209.61234047992988,1.157098724478264,101.0,1
13.10775899887085,-175.71331560611725,894.3401575088501,0.9958514567640593,-376.92055435713905,861.3664529769544,0.9583200489468683,203.89119185577258,2.1503912671093497,101.0,1
13.207726001739502,-163.4550541639328,907.5495600700378,0.93551907688158,-363.6017752614997,868.7472950798178,0.9114786681524893,203.8733080481074,1.3774139579463567,101.0,1
13.307728290557861,-153.01024913787842,923.4020709991455,0.865623086691895,-350.70459423291015,879.3090144783116,0.8292467377560789,202.55184945070965,2.084211268117466,101.0,1
13.40773057937622,-139.80677723884583,937.5599026679993,0.7988192507861546,-336.0336284753598,892.3831558996002,0.7691134911956529,201.36016387253227,1.702014651766016,101.0,1
13.507735013961792,-126.53061747550964,949.7808218002319,0.7415671435316158,-322.7030515287338,915.2342330617939,0.7093765352453765,199.19109085455943,1.844385994760369,101.0,1
13.607745170593262,-112.99747228622437,962.1961712837219,0.6808635149092289,-306.16855202954105,938.7654114745511,0.6445170411346333,194.58691259803126,2.0824995474672616,101.0,1
13.707724571228027,-98.55519235134125,973.5182523727417,0.6248006967875541,-287.65790186082256,957.6267096300348,0.5810430076967957,189.76927010074775,2.5071309061461005,101.0,1
13.807723999023438,-83.03865790367126,983.8001728057861,0.5736501124519685,-275.35275251778063,962.3866172188751,0.5274050775360053,193.50258745070656,2.6496453241198217,101.0,1
13.94944167137146,-60.26628613471985,997.7238774299622,0.5081590712809979,-249.18141185071536,983.8088697651359,0.46818002888735466,189.42690453735065,2.2906303981303546,101.0,1
14.06609058380127,-39.60995376110077,1008.5304975509644,0.45938157515292505,-218.1148352568556,994.6023436600245,0.40283242644690936,179.0474411674827,3.2400275559123792,101.0,1
14.207804918289185,-18.166983500123024,1018.9322233200073,0.4113495449034757,-195.0594266727935,1008.153428302657,0.3593536209617428,177.2205373923195,2.979146993744527,101.0,1
14.366047382354736,9.204668924212456,1031.1448574066162,0.37149008051531546,-164.69855065431392,1022.6308053817635,0.3050147740668696,174.11151272003542,3.808754501334733,101.0,1
14.6493661403656,59.33631584048271,1050.3284931182861,0.325761711141513,-104.51480083112291,1039.0745929013704,0.2646971428001303,164.23714167210903,3.4987420437494094,101.0,1
14.941051483154297,111.75201088190079,1067.2359466552734,0.32790452747909254,-37.882985827897684,1058.1381071150638,0.2558507388380863,149.91131686647546,4.12837798705733,101.0,1
15.241011142730713,165.84965586662292,1085.8675241470337,0.2863410744994059,24.538729180179786,1077.1500145523978,0.23961734500637652,141.57956411330653,2.6770725030615123,101.0,1
15.466012954711914,205.3547352552414,1096.947431564331,0.22448956435777012,72.32945059459307,1088.4864786960745,0.18239228108226777,133.29408870045728,2.411996660652951,101.0,1
15.624345541000366,234.9478006362915,1102.976679801941,0.1661449939985183,97.24059348707482,1091.2063857689668,0.12802355473901195,138.20931489035007,2.1841975785340355,101.0,1
15.76601266860962,260.17194986343384,1106.7748069763184,0.1099842523824707,121.85209187389633,1093.3719365986622,0.056323878392957806,138.96769426239354,3.0745129566926686,101.0,1
15.89930510520935,279.46585416793823,1108.2879304885864,0.031606068483129315,141.63229575218696,1099.7054562641715,0.0083342815322,138.10050213290705,1.3333751740158726,101.0,1
15.999320983886719,301.61428451538086,1108.3366870880127,-0.01985461495677501,169.9547240377446,1098.7696047458237,-0.061640605462406885,132.00670032125865,2.394160898746436,101.0,1
16.124306440353394,324.000746011734,1108.0504655838013,-0.09403518629615122,198.2785320803586,1093.4196385784742,-0.10986178335280224,126.57067659875385,0.9067972154002742,101.0,1
16.224279165267944,342.4370586872101,1106.568455696106,-0.16214536421732642,214.24366163070079,1087.273620249205,-0.18282729234023978,129.6373315207114,1.1849871936358605,101.0,1
16.29929828643799,356.78863525390625,1100.3481149673462,-0.2025336469663046,228.06032768603072,1087.7748504608508,-0.23332724594983734,129.34088351963527,1.7643432577747673,101.0,1
16.39925241470337,376.2321472167969,1097.2832441329956,-0.27415807353560434,242.27703131366164,1077.294763977061,-0.2863812492717779,135.4382236134489,0.7003363819294569,101.0,1
16.482640504837036,389.87237215042114,1091.6779041290283,-0.3312710138327508,260.74390970040577,1065.92667139595,-0.3529570694434136,131.67112744249664,1.2425194607769765,101.0,1
16.582642316818237,406.55258297920227,1085.0225687026978,-0.4057872961155729,288.0487913569941,1054.9817224137316,-0.41438139224477955,122.2522027392432,0.49240543693325795,101.0,1
16.641007900238037,415.2223765850067,1079.268455505371,-0.44592222599674397,307.0540221899642,1045.6622723305911,-0.45987063782960097,113.26856774987657,0.7991851289330432,101.0,1
16.715975046157837,428.0191957950592,1074.610710144043,-0.5142350106470019,320.82501321896916,1039.021560619614,-0.5126802339320697,112.94768852007677,0.08908214385083003,101.0,1
16.7992582321167,440.81762433052063,1066.0794973373413,-0.5821263603848712,333.73625354116973,1032.8374165201358,-0.5843995924915768,112.12250401763276,0.13024660556786385,101.0,1
16.882639169692993,454.57518100738525,1057.378649711609,-0.6505227633203234,351.66469544755506,1022.8499789488654,-0.646104109206637,108.54859346302905,0.2531702318423542,101.0,1
16.9409658908844,462.0821475982666,1050.1834154129028,-0.6956686357052139,364.06674212136676,1014.3025127425402,-0.7037945795005548,104.37652459840346,0.4655822840335532,101.0,1
17.01594567298889,473.3184278011322,1041.0449504852295,-0.7672576525485257,372.21327308264193,1007.2488911899528,-0.7636487717660914,106.60406152928562,0.20677363759936002,101.0,1
17.099287271499634,485.3464961051941,1028.738260269165,-0.8402760712350205,374.49705168166105,998.4394353148203,-0.8266722798759196,114.91570007018171,0.779439830253016,101.0,1
17.141014099121094,491.000771522522,1022.9740142822266,-0.8739845968412401,380.09021684988977,990.6854248025817,-0.8797218911363293,115.51495205546324,0.32872274893309467,101.0,1
