time_stamp[s],x_true_pose[mm],y_true_pose[mm],theta_true[rad],x_pose[mm],y_pose[mm],theta[rad],p_err[mm],a_err[mm],num_particles,valid_pose
0.18327665328979492,-1.645155600272119,-1.8584690988063812,0.021944888521936254,-3915.045049237953,-4.473488815357787,-0.011176433530278902,3913.4007673443734,1.897711965485511,1000.0,1
5.066662788391113,27.532199397683144,-1.9260086119174957,0.032328608126996096,-3776.7005188586722,-6.4895208390473265,-0.028566505286091018,3804.2354554228086,3.4890329915403813,1000.0,1
5.241647958755493,52.70181968808174,-1.2864060699939728,0.05144946907228226,-3635.541957484423,-19.668567209534253,-0.026114187383197814,3688.28958511935,4.444070158501651,1000.0,1
5.424950122833252,82.3320597410202,-0.11082738637924194,0.10301290986609074,-3469.385138235449,-73.40562681906694,0.025847627512571487,3552.4733893480047,4.421245003791981,1000.0,1
5.583354949951172,106.74326866865158,2.688363194465637,0.15247111313968875,-3330.496748436696,-92.30287249229706,0.05511779285156672,3438.552350924393,5.577934374094724,1000.0,1
5.741731882095337,130.70957362651825,6.1399489641189575,0.2144313754732444,-3185.144713367417,-100.67562230412656,0.10104057030226139,3317.574297410899,6.496814571887517,1000.0,1
5.866699457168579,149.5908498764038,10.80128364264965,0.2727156662052287,-3073.0085401649094,-120.37309399505885,0.15241526768659136,3225.267980500734,6.89270510885978,1000.0,1
6.0000691413879395,169.35493052005768,16.15036278963089,0.3363193013984321,-3005.6143337958692,-127.29613797206434,0.19600736645687805,3178.2081001614088,8.03928168746523,1000.0,1
6.125034332275391,187.70892918109894,23.29055592417717,0.4113187493341987,-2958.4699080660043,-117.39957681583314,0.2596066572917439,3149.3229414259717,8.692462575132941,1000.0,1
6.225042104721069,201.79778337478638,30.00514954328537,0.4707329347045518,-2912.0535919957097,-124.13579174445239,0.3111359488866965,3117.6641605018654,9.144233710372363,1000.0,1
6.325010299682617,215.74488282203674,37.449028342962265,0.5357165886536712,-2888.7272813349555,-118.02850039985022,0.3666563172216608,3108.363022552155,9.686440036390318,1000.0,1
6.425053358078003,229.37850654125214,46.5252585709095,0.6022765731961871,-2875.5702677441554,-112.91853707983971,0.41350482751490836,3109.0399185131046,10.815824318854197,1000.0,1
6.500077247619629,239.31574821472168,54.00223284959793,0.654201371183482,-2859.5941406519705,-108.25496578733704,0.4527538138581215,3103.154829818403,11.542094827962865,1000.0,1
6.600067615509033,251.94457173347473,64.26671147346497,0.7274084719332886,-2840.7397121865424,-109.81588826683029,0.5246277021103511,3097.5798345705653,11.618482277268123,1000.0,1
6.658393383026123,258.81969928741455,70.23752480745316,0.7725020922374365,-2828.9294893783376,-109.1536346911961,0.5704322412917057,3092.95590660654,11.577749626028002,1000.0,1
6.7417356967926025,268.11859011650085,79.308420419693,0.8374028934164355,-2820.1614050793405,-101.08639044729269,0.6285611930705767,3093.544183701691,11.965748016153535,1000.0,1
6.825077295303345,276.01566910743713,89.42566066980362,0.9005733285802405,-2817.091915325065,-82.55845031543635,0.6754841759787864,3097.885256639641,12.896658458239456,1000.0,1
6.9000256061553955,282.7582061290741,99.649079144001,0.9601741677615094,-2810.4002619955054,-85.95147642087899,0.7294470447855695,3098.7218131282434,13.219690365717282,1000.0,1
6.983368396759033,291.0688817501068,109.94817316532135,1.0299023793730855,-2790.694464275287,-68.93515405900737,0.7902055391401631,3086.950690513938,13.733617307968041,1000.0,1
7.041763544082642,294.94163393974304,119.86276507377625,1.0759132449575057,-2784.352494952483,-46.05579428644546,0.8464888266806944,3083.7609019783467,13.145050884505359,1000.0,1
7.125050783157349,301.5616834163666,131.7022293806076,1.146033515341648,-2768.0624885000816,-38.401199260007296,0.9079623826342307,3074.3337055773623,13.64047112803395,1000.0,1
7.2000627517700195,306.1799108982086,142.71263778209686,1.2071262309087143,-2752.3861568221355,-38.457165585825386,0.9798852747684839,3063.9270370331374,13.019947719352654,1000.0,1
7.283389568328857,310.505747795105,155.31779825687408,1.2774331084730874,-2746.070174410081,-33.3560319092781,1.0336601891938177,3062.393538132232,13.96715943428545,1000.0,1
7.341711044311523,312.97847628593445,164.28455710411072,1.3274959150701808,-2742.8899647732624,-30.673485073988015,1.0892990748783689,3062.0810843724375,13.647673636342965,1000.0,1
7.416734457015991,315.4390752315521,175.30998587608337,1.3909779381839047,-2743.4209406015925,-11.347102975801322,1.1489421768167551,3064.549798140243,13.867627617573207,1000.0,1
7.500092506408691,317.6800012588501,188.6686235666275,1.4626531036969812,-2730.12884351052,-0.1802567496558857,1.2117964023992498,3053.653983975774,14.373030246933972,1000.0,1
7.583432912826538,318.7465965747833,202.6696652173996,1.53363336090146,-2728.9719568522223,14.696288007708121,1.2732844677527777,3053.509844661192,14.916892778321937,1000.0,1
7.641754150390625,319.1823363304138,212.5522643327713,1.5818384262471445,-2722.0256983461645,35.15475282258866,1.3433429742835654,3046.3775516622,13.664782830578146,1000.0,1
7.716728448867798,318.5373544692993,225.65987706184387,1.6441020910234374,-2725.0823723810827,64.2050976528183,1.3922278414714302,3047.899061233297,14.431331467354878,1000.0,1
7.800076961517334,317.315936088562,240.54290354251862,1.7161181875606148,-2721.5227239434053,80.74114466564633,1.4500824681075792,3043.037463431074,15.242723924385354,1000.0,1
7.883403062820435,316.2827491760254,248.93227219581604,1.778978700082668,-2721.6608982587777,76.11645104175362,1.5123670415458577,3042.855059484534,15.275722803142278,1000.0,1
7.958435297012329,313.4932518005371,257.7824890613556,1.8475062157621365,-2724.290799359223,87.58395795495483,1.563604128138191,3042.5481888495015,16.266391415805362,1000.0,1
8.016785860061646,310.9646141529083,267.8494453430176,1.8966014400936635,-2719.2914609571176,102.3784983332272,1.6264103827970617,3034.770586888824,15.480807245272686,1000.0,1
8.075100183486938,306.7927360534668,279.9515128135681,1.942363142727682,-2716.6229593255853,108.54543147117681,1.6793149036483366,3028.2705479837086,15.071553907594739,1000.0,1
8.158415794372559,301.49388313293457,292.73366928100586,1.9985304547145828,-2722.838611026638,98.06461917041109,1.7278184551335587,3030.591208708364,15.51065503953999,1000.0,1
8.25843095779419,296.50813341140747,306.8787455558777,2.074975342504728,-2721.960496144389,88.54566825886327,1.8022182561752156,3026.3546058342918,15.6278298789665,1000.0,1
8.31674575805664,290.2079224586487,315.2161240577698,2.118741247043799,-2721.656827819824,82.0267663655098,1.8718889795061038,3020.8784402075726,14.143593093144203,1000.0,1
8.400092363357544,281.9769084453583,327.90201902389526,2.178542515193845,-2729.2665171830054,86.79756775568744,1.9201201314692284,3020.880389027574,14.806511919130791,1000.0,1
8.475151777267456,274.8488187789917,338.57372403144836,2.2251326132159757,-2733.85452472344,70.93610392062469,1.97989629691852,3020.58366957469,14.051005907179531,1000.0,1
8.575129985809326,267.0291066169739,351.3827323913574,2.289972312245642,-2739.3475555505847,64.95366797973996,2.050981641372182,3019.9904376943755,13.693156784049373,1000.0,1
8.675145864486694,256.2054693698883,362.8780245780945,2.355114384529189,-2747.482794178507,60.870058818290396,2.122141224853848,3018.8328863918173,13.348378789224448,1000.0,1
8.75844430923462,246.05438113212585,373.42697381973267,2.403230876325829,-2750.9445991329267,62.52928885884991,2.173325442193204,3013.08152200099,13.172611062922352,1000.0,1
8.858428478240967,233.02686214447021,384.67150926589966,2.4558478074214207,-2761.152727604224,68.42250920546661,2.228445270889425,3010.8345762772956,13.02920559385288,1000.0,1
8.95841646194458,220.1768308877945,395.063579082489,2.5057218028724173,-2773.8351299935866,70.18666876480826,2.277885080859512,3011.5863973590954,13.054082589434858,1000.0,1
9.075100898742676,204.19447124004364,406.7288637161255,2.556071806621237,-2784.811365079594,87.66866273952618,2.341622842762419,3005.9865770492197,12.287020550063799,1000.0,1
9.20004391670227,185.8571171760559,418.05100440979004,2.6048794996188547,-2806.0687265452775,62.92905656093162,2.3958765216191913,3012.927455510932,11.974988545046308,1000.0,1
9.358396053314209,161.51276230812073,431.89918994903564,2.653396168267666,-2822.0901345774973,76.57280671532857,2.4541409970356374,3004.686853055772,11.41648035775177,1000.0,1
9.516714811325073,134.54392552375793,445.90142369270325,2.6904578907616523,-2844.3847476124038,95.24587935207356,2.5080136281773595,2999.495849373624,10.453286242456535,1000.0,1
9.700051069259644,105.40667176246643,459.3502879142761,2.727134896262007,-2870.3635379048255,114.58565818235597,2.537754432643611,2995.675381388562,10.850701287564926,1000.0,1
9.87508487701416,77.17350125312805,472.1267521381378,2.7395166531093276,-2894.8710642898363,127.27679059076266,2.5649208635015794,2991.9843575046802,10.003601865278048,1000.0,1
10.058542966842651,46.64231464266777,485.20106077194214,2.7400622110453883,-2921.5951837817656,139.87625199492877,2.5704662953763373,2988.2575308379664,9.717130190493247,1000.0,1
10.23347783088684,17.99502968788147,497.4699020385742,2.730516658228813,-2939.9064515232835,154.33436765278438,2.5658056112814265,2977.737927942858,9.437247829266406,1000.0,1
10.391845941543579,-4.745372571051121,510.6046795845032,2.714517163737395,-2965.786256262773,170.65689011304616,2.555004325783735,2980.4911700020825,9.13941239289894,1000.0,1
10.575133323669434,-34.304507076740265,523.7557291984558,2.670333886031284,-2985.7170264729803,184.92919186204244,2.5232218932643615,2970.7977517919735,8.428896301303762,1000.0,1
10.758422613143921,-62.10481747984886,539.4503474235535,2.6111197648136035,-3009.4298538569624,204.32367765460248,2.469391916147192,2966.316698339168,8.120407568054226,1000.0,1
10.916818618774414,-85.82032471895218,555.0122857093811,2.5457668783721457,-3027.1008249707693,216.309428646613,2.4151342806234015,2960.717920799626,7.4846965178332185,1000.0,1
11.03347373008728,-102.6659831404686,567.1385526657104,2.4899726879672914,-3044.815447091633,232.13165974752496,2.354280413955859,2961.160766748543,7.774594613387779,1000.0,1
11.150194883346558,-119.66073513031006,578.9971351623535,2.4193222248853523,-3060.641726246435,254.42520332229114,2.2880468978297634,2958.836955468276,7.52152219448479,1000.0,1
11.250149726867676,-130.48581779003143,585.7462882995605,2.37897531574769,-3077.022038525849,269.0492643952881,2.227443380214968,2963.506825546035,8.682140367473433,1000.0,1
11.366812467575073,-142.89113879203796,598.969042301178,2.2933384397966265,-3086.814817318666,287.5962650936939,2.168875938246457,2960.3445122782005,7.131176046465189,1000.0,1
11.450194835662842,-153.45753729343414,610.1877689361572,2.2464631015432612,-3098.2779559038777,300.0845542524795,2.0998350896804756,2961.1030548804174,8.401166238131786,1000.0,1
11.550185680389404,-165.8710241317749,620.1765537261963,2.177223706236407,-3107.3055621704775,319.7815670246133,2.0465003070439813,2956.733719766188,7.489899057329854,1000.0,1
11.633458375930786,-172.0103621482849,632.6413750648499,2.1188782220776874,-3113.4255789977897,327.0549843052063,1.9823423965836926,2957.246442238341,7.82292655314061,1000.0,1
11.708463907241821,-180.09474873542786,643.5684561729431,2.0665512415853122,-3117.65535354962,341.15877071815754,1.9227371072524841,2953.08549229669,8.23994293159852,1000.0,1
11.766772270202637,-184.63194370269775,652.7554988861084,2.0283454545167814,-3118.3190752570144,354.42930450902355,1.8687441810856822,2948.816492103045,9.144479372515423,1000.0,1
11.850151538848877,-191.46500527858734,665.7971143722534,1.964432763343171,-3121.0353591705093,360.00423210145084,1.8192698585933529,2945.4866737518823,8.317221784024154,1000.0,1
11.93345046043396,-197.21810519695282,679.3888211250305,1.9017753953176695,-3123.4572982711597,371.7953417819574,1.7551634895557569,2942.3612224908693,8.40024342652735,1000.0,1
12.008492946624756,-200.93843340873718,693.3407187461853,1.8472072738453122,-3128.723892275524,382.8258293814044,1.7049282662027736,2944.205697581102,8.151986651227048,1000.0,1
12.06679654121399,-201.95765793323517,702.8723359107971,1.8040861426239942,-3128.43417897352,390.9035093201945,1.6476986693113842,2943.057827662305,8.960342189527351,1000.0,1
12.150190591812134,-206.24376833438873,717.883288860321,1.7362635199055663,-3130.419409457821,400.9578090521912,1.59845083731041,2941.2998724868653,7.896085076078469,1000.0,1
12.233460187911987,-207.45337009429932,732.3257327079773,1.672324244254715,-3130.0899794997513,404.1890761638119,1.5524043748044183,2940.9995606944553,6.870902399261819,1000.0,1
12.308504104614258,-209.3014121055603,745.1200485229492,1.6152709661239122,-3128.7301047341557,415.09916001214697,1.4921296439964096,2938.02274977519,7.055478041566835,1000.0,1
12.391862154006958,-209.68402922153473,759.3337893486023,1.548838511647044,-3129.8188640659087,431.6441020937158,1.4313232240539389,2938.463541513623,6.733130007351011,1000.0,1
12.450198650360107,-209.02889966964722,770.4039216041565,1.5007196789301729,-3127.2602241077925,441.6149510688633,1.3769284459824995,2936.6947832687124,7.092715188622505,1000.0,1
12.525185108184814,-207.96765387058258,783.7368249893188,1.4404060445870674,-3124.274181916647,453.87286708242493,1.3096645486841814,2934.9027234731466,7.490935922462317,1000.0,1
12.608520746231079,-205.60504496097565,798.4846234321594,1.375444530149709,-3118.7296807581174,465.9919781653355,1.2510995045776379,2932.037943622961,7.124445168725966,1000.0,1
12.691911220550537,-201.94286108016968,813.581645488739,1.3107915333359264,-3115.0174909797092,481.5822390144687,1.192667844291087,2931.9323671025577,6.767988842785015,1000.0,1
12.750216007232666,-198.9174485206604,824.076771736145,1.2652574243014925,-3113.49336662693,491.5580466436227,1.135563837044862,2933.4828250634364,7.430895179716604,1000.0,1
12.833504676818848,-193.9532458782196,838.1333351135254,1.200190939231084,-3109.583523472808,505.22801213574365,1.0817454717344446,2934.574222897291,6.786425390011417,1000.0,1
12.908565521240234,-188.93592059612274,850.7533669471741,1.1439354176669851,-3101.808726177609,517.7630835861527,1.0235780031936288,2931.8442165826295,6.895971882430088,1000.0,1
12.983542442321777,-182.80822038650513,862.1554374694824,1.08738205685685,-3095.789910082259,526.837746472293,0.967220316845119,2932.217638306955,6.8847605616204595,1000.0,1
13.05022668838501,-180.33471703529358,869.8884844779968,1.0371433282560991,-3087.4125231533226,535.8375379831203,0.9188361974887608,2926.207683278502,6.778499279270815,1000.0,1
13.125210762023926,-172.9186773300171,882.5029134750366,0.9761349795676982,-3079.770787709193,543.6737958624658,0.8608782351309114,2926.5328227371688,6.6037250166458135,1000.0,1
13.20856237411499,-163.94954919815063,896.2181210517883,0.9221667672798936,-3072.411803472391,553.840819947615,0.7995107779582806,2928.5448435783555,7.027670520130114,1000.0,1
13.308557033538818,-150.21932125091553,910.1261496543884,0.8559763011867091,-3062.9448766927535,561.8724869965744,0.7448579946918696,2933.4707728011444,6.3666099887954255,1000.0,1
13.40858006477356,-137.7054899930954,923.7735271453857,0.7911989210209688,-3051.8847244949343,569.7986861186866,0.6792847573486543,2935.598541844848,6.412209246159937,1000.0,1
13.508540630340576,-124.34620410203934,936.5005493164062,0.7268642441581333,-3038.173929976153,587.1188582447213,0.6119718495396482,2934.6992319705982,6.5828493097907685,1000.0,1
13.608505010604858,-110.17872393131256,948.3631253242493,0.6658680831139708,-3020.3377090247145,598.5644765004793,0.5460767894369116,2931.1063462861243,6.863535550107677,1000.0,1
13.70845890045166,-95.44196724891663,960.0013494491577,0.6102379000132897,-3004.49871316095,607.1527320330812,0.4851838089992572,2930.377671520984,7.165071625948934,1000.0,1
13.808460235595703,-79.83128726482391,970.1591730117798,0.5603683182239885,-2990.1493488814876,612.7371181592018,0.43946657750370793,2932.18378432649,6.92715947905704,1000.0,1
13.908457040786743,-64.08838927745819,979.8368811607361,0.5108716733821054,-2967.4204597861667,620.5340168681702,0.38845514093827893,2925.480415236654,7.013950651657568,1000.0,1
14.025194644927979,-43.91951858997345,990.9685850143433,0.4573169741371759,-2944.3088694114876,630.4566711721179,0.3334004722647983,2922.708884986842,7.0998925693122015,1000.0,1
14.183558464050293,-20.84139734506607,1001.6541481018066,0.39785248984599425,-2915.4000234530804,638.922591980963,0.2749215820925264,2917.1979401100234,7.043422185985758,1000.0,1
15.78352427482605,264.4236385822296,1084.9025249481201,0.07565124909753011,-2625.971381713565,692.245591917388,-0.03150744851029162,2916.944092780632,6.139741111046816,1000.0,1
15.925196409225464,293.0023670196533,1085.479497909546,-0.012693371433312733,-2602.283895711472,691.0351215136172,-0.09295404630511725,2922.0316406962365,4.5985979310261,1000.0,1
16.016863107681274,310.6958866119385,1085.172176361084,-0.05531751213843357,-2586.8595760628823,689.9113890850923,-0.1422195728975244,2924.390320944646,4.9791213124853515,1000.0,1
16.116856813430786,328.00304889678955,1084.0263366699219,-0.11877367734181211,-2574.5322462310733,685.4507305493164,-0.19017920708392233,2929.773652222539,4.091235488118788,1000.0,1
16.21686887741089,346.30367159843445,1081.1235904693604,-0.18188422729895856,-2560.8621607216082,683.5188317119049,-0.24235508186041071,2934.2294935460754,3.464724749920631,1000.0,1
16.31688356399536,365.3073012828827,1074.6848583221436,-0.24788914737031034,-2553.683026428874,680.9662768475911,-0.30147060786137697,2945.4233744358594,3.069991546285085,1000.0,1
16.416918754577637,383.239209651947,1070.1674222946167,-0.31511406636106176,-2546.5638761278647,675.7429572110015,-0.36725422656102386,2956.2335462715737,2.987411122593818,1000.0,1
16.516908884048462,400.35301446914673,1064.3326044082642,-0.39309961996731213,-2535.3852583996827,669.1652510180978,-0.4307444523712901,2962.214786941056,2.156890017225259,1000.0,1
16.58358860015869,411.165326833725,1058.306097984314,-0.4351540208137476,-2525.812682577107,663.3455883080342,-0.48800443268043153,2963.4158722606853,3.028105545489112,1000.0,1
16.67530918121338,426.69978737831116,1051.7146587371826,-0.513214896255539,-2508.2843743350286,654.7491635080403,-0.5468233441131991,2961.7078913881214,1.92562221822942,1000.0,1
16.75862216949463,439.7229552268982,1043.7209606170654,-0.5838383603169036,-2499.499670819152,651.666762329501,-0.6126259906689486,2965.254818705459,1.6494097213548875,1000.0,1
16.841972827911377,453.21470499038696,1034.902572631836,-0.6501216373673849,-2490.2132061535744,644.2364727125707,-0.6729033985034257,2969.2402849428395,1.3052987629703017,1000.0,1
16.91695785522461,466.33192896842957,1024.2161750793457,-0.7126528607636974,-2485.1913279352607,636.6906320154059,-0.7269670065850747,2976.8549817836893,0.8201401428997456,1000.0,1
16.975321769714355,474.3829369544983,1016.7551040649414,-0.756389115986373,-2480.577870790878,628.31817620013,-0.7924421451102983,2980.3819591187066,2.0656864074631582,1000.0,1
17.05866527557373,484.846293926239,1005.6478977203369,-0.824252699109944,-2467.5684872673537,620.7582521559773,-0.840237058094917,2977.397030876646,0.9158363080609676,1000.0,1
17.14197611808777,494.79174613952637,993.8801527023315,-0.8980128893685956,-2459.1196131302245,611.8231041307505,-0.8998310911896814,2978.5163935735013,0.10417529065121846,1000.0,1
17.216958045959473,503.0600428581238,983.0705523490906,-0.9622679321655994,-2449.9305316860105,600.7174406450822,-0.9748587287262187,2977.641220055941,0.7213995036313212,1000.0,1
17.30028986930847,511.07126474380493,970.3624844551086,-1.0341409458654616,-2441.4109123748412,591.7288660997393,-1.0380114426457576,2976.661623892131,0.22176313012993756,1000.0,1
