time_stamp[s],x_true_pose[mm],y_true_pose[mm],theta_true[rad],x_pose[mm],y_pose[mm],theta[rad],p_err[mm],a_err[mm],num_particles,valid_pose
0.2000267505645752,-7.798437029123306,6.66387751698494,0.01468258361536424,-500.0,0.0,0.0,492.246671755671,0.8412500735083045,500.0,1
5.2583537101745605,47.06243798136711,7.175207138061523,0.015408899986168519,-446.5855963070798,-0.02067778810419923,-0.0006268175324380826,493.70047854617104,0.9187789352801553,101.0,1
5.591619491577148,101.73068940639496,7.197536528110504,0.018643810995422092,-393.3340797762518,0.14797547085286397,0.0019397880628564067,495.11495836519356,0.9570700149257544,101.0,1
5.933295726776123,155.37530183792114,7.599528878927231,0.019922083665521,-337.2438503387494,-0.017937481697845092,-0.001643049214272611,492.67804384305265,1.2355910986509768,101.0,1
6.2500081062316895,205.44227957725525,8.096866309642792,0.021235458369202355,-284.6214126389972,-0.56895547997886,-0.005785578401080007,490.14030531666674,1.5481913650049883,101.0,1
6.575058698654175,254.76276874542236,9.694106876850128,0.020918959801275647,-228.09516676568336,-1.6576658373815871,-0.0068889715892742585,482.99135461186336,1.5932771056678683,101.0,1
6.891724109649658,310.03618240356445,11.325053870677948,0.0214481467498035,-171.20749259784904,-2.9178466023407434,-0.0072762403365651766,481.45439549634443,1.6457861491490087,101.0,1
7.208364248275757,361.9089126586914,12.401387095451355,0.016949949622345375,-117.62654889065863,-4.413036307781214,-0.01825334269137266,479.8301613255792,2.0170000745413743,101.0,1
7.533289432525635,417.3641800880432,12.300308793783188,0.023720554061313157,-61.09603876948018,-3.0000972763824056,-0.016127358432445477,478.7047978191791,2.283117208298993,101.0,1
7.833282232284546,467.30679273605347,13.620872050523758,0.023613588659249486,-6.074025109611936,-5.630272289861853,-0.024941523517845364,473.7721026639764,2.7820030015318054,106.0,1
8.125028133392334,517.1481370925903,14.952465891838074,0.02393610926587476,51.78076445226509,-3.390628515831579,-0.023368933832461643,465.72874146933214,2.710379319219139,101.0,1
8.425002098083496,567.8004622459412,15.589021146297455,0.026640631539029114,107.61256431249025,-9.441630611543367,-0.03243911147713481,460.868131824962,3.3850199295436934,101.0,1
8.724974632263184,620.1702952384949,17.164167016744614,0.026842583217008106,161.52966417529424,-19.046722897791405,-0.050017313229967705,460.0678830460279,4.403747680224265,101.0,1
9.024972200393677,670.3279614448547,18.09656247496605,0.029149245251895266,206.53361910496565,-15.147669321106562,-0.0426991316013212,464.98426955564986,4.116608758554738,101.0,1
9.324958086013794,723.7096428871155,19.23830434679985,0.031495686784724704,252.81806333826256,-17.778450796682645,-0.03902548659772483,472.3442810613528,4.040565601124679,101.0,1
9.624958515167236,776.3136029243469,20.105676725506783,0.0328974829271267,313.5668115968294,-16.062058792353373,-0.03885245404235057,464.15805279710804,4.110968568680724,101.0,1
9.983319282531738,795.8868145942688,20.78840881586075,0.12125827559086379,323.3909222609347,-15.643225424929154,0.007519454947903812,473.8983353477076,6.516754389637051,101.0,1
10.12500262260437,799.2260456085205,22.500507533550262,0.17449930092464325,329.32367602312604,-19.05038999631224,0.06003155905506772,471.7358519632632,6.5585184995196215,101.0,1
10.283291578292847,797.2650527954102,22.189009934663773,0.22740591311357553,329.7913253765121,-22.120645372464246,0.09859883442716239,469.56898468739894,7.380101980140973,101.0,1
10.399967193603516,798.8948822021484,22.04005792737007,0.27260289175033525,331.27374562498454,-15.534461465494807,0.16505350098154342,469.128310679843,6.1621261802550285,101.0,1
10.558330535888672,800.8717894554138,22.361794486641884,0.33113585677124885,333.52854763915514,-13.404027350766498,0.21687384692331058,468.7098246069046,6.546730922969112,101.0,1
10.699981212615967,801.9951581954956,22.973012179136276,0.3880066411549619,336.65812463305105,-20.44384404861319,0.2671443178386143,467.35808349636653,6.924901028172322,101.0,1
10.85835599899292,803.5178184509277,23.825421929359436,0.4484679871563145,348.06467646088754,-13.68744432844902,0.3299652148074384,456.99538256253305,6.789708716190192,101.0,1
11.000016212463379,804.8339486122131,24.38177727162838,0.5043519275618457,359.27382499539897,-8.207822353262644,0.4103904577059419,446.7503841757066,5.383595659588993,106.0,1
11.158406019210815,805.9345483779907,25.488536804914474,0.5665476195848665,371.27957971438616,-20.322264187014806,0.4375925897476973,437.0624340657536,7.3885789566534,106.0,1
11.28335976600647,806.8208694458008,26.289764791727066,0.6136425885277244,382.4349807937052,-25.834939823618807,0.4662717528862252,427.57498443929796,8.44372690557403,132.0,1
11.441619396209717,807.5008988380432,27.279598638415337,0.6788080130246016,391.73971361456955,-23.62798966742109,0.5210086365052016,418.8662622908941,9.041238284357403,132.0,1
11.558401107788086,808.3277344703674,27.93901599943638,0.7217226621396329,400.83702133729776,-22.015758495676295,0.5725915614944092,410.5413021664876,8.544582661112026,119.0,1
11.69999647140503,809.053361415863,28.859717771410942,0.7805114476814459,406.4015917724991,-14.83227601736851,0.6306154002936889,405.01535516344484,8.588410881011463,144.0,1
11.858365058898926,810.0146651268005,30.017632991075516,0.8434779726249885,411.4945231524528,-19.38458832993937,0.677291543350079,401.57052061961025,9.52178100980166,106.0,1
11.98333191871643,811.0719919204712,31.093763187527657,0.8947117714355819,434.02342327670164,-32.5285194114297,0.6978349824896275,382.3786316720862,11.280209090691047,106.0,1
12.141648054122925,811.560869216919,32.311610877513885,0.9627287434216154,458.5429568889021,-48.502169427010585,0.7268343690453282,362.149849525772,13.515752062640251,132.0,1
12.258262395858765,811.9112849235535,33.296942710876465,1.0099009387131854,469.0237331000838,-60.001008569494644,0.7641694138381406,355.35388123475883,14.07937926865407,119.0,1
12.374913215637207,811.7257356643677,33.95681455731392,1.0602688805979397,471.8714958460062,-62.15725307327585,0.8153742096497799,353.1838307723245,14.031431070574609,101.0,1
12.516696214675903,812.4471306800842,34.99104082584381,1.116840885010516,465.4396503479556,-63.89042452761139,0.8646646564613168,360.82091901232553,14.448633589395573,119.0,1
12.6416015625,813.2089376449585,35.961464047431946,1.1710340169638915,470.6693112577958,-62.971399204276054,0.9148178308084247,356.5404704611219,14.680106109646482,106.0,1
12.77493929862976,813.5678768157959,39.317190647125244,1.2135966245226535,497.484388279665,-46.094426609250604,0.9843957648063062,327.42009114823736,13.132241922516746,119.0,1
13.116638898849487,836.726725101471,102.49888896942139,1.2357334822211665,534.7724284009753,3.1374911274730803,1.007587075889431,317.8821867878049,13.07182619388521,106.0,1
13.433311223983765,856.1540842056274,153.05978059768677,1.2544442860864242,570.4383031651298,45.88471636845297,1.0456092859260995,305.15570112341334,11.965364123800478,106.0,1
13.758314371109009,872.8278279304504,205.10151982307434,1.2743461879863158,600.2993759183844,90.71383953748312,1.0738349931386977,295.56098957273036,11.488445209893818,101.0,1
14.091660022735596,890.0042176246643,263.4473741054535,1.2915549609540424,639.8351396307378,147.33066613031235,1.0954154521010662,275.803657436437,11.237966053044387,101.0,1
14.41662883758545,904.3919444084167,316.0087466239929,1.3074282166956999,672.2048342835295,202.76991125656306,1.1016211272857257,258.3290303924791,11.791877617063099,101.0,1
14.716645002365112,917.8964495658875,365.7423257827759,1.3299252824414114,714.6742488003247,253.9380446342736,1.1185281602377743,231.94710639956696,12.112162903479708,101.0,1
15.008352279663086,929.839551448822,416.93294048309326,1.3412303402351908,744.99925584098,304.73401162658297,1.1448617830118988,216.22796885912487,11.251089557967832,101.0,1
15.316606521606445,941.7420625686646,469.599187374115,1.3516490920418907,766.2426350486497,363.2512160095907,1.17209365508618,205.2070663335028,10.28776872618955,101.0,1
15.608393669128418,952.1424174308777,519.0243721008301,1.3900521662788605,795.4360398895531,422.03704137435227,1.2084769259680896,184.2917010708061,10.403494933880868,101.0,1
15.908298015594482,961.340069770813,569.02015209198,1.4040793028464633,820.2813066568084,474.6096458055496,1.2248313338476757,169.737792929309,10.270152109922348,101.0,1
16.208268404006958,970.1386094093323,620.0553774833679,1.414445003081857,847.5166546012122,525.3284592030169,1.2281774858615446,154.94945255746129,10.67234259710428,101.0,1
16.508322954177856,982.0215106010437,670.5245971679688,1.435343298155699,868.1159533552656,580.5804436023599,1.2498924365768422,145.13589057192254,10.625551675533332,101.0,1
16.808286666870117,986.2582683563232,726.830244064331,1.4440485181941156,888.4485763142677,614.9438991043983,1.2431589620763386,148.61120430793505,11.510123713805129,101.0,1
17.091629028320312,993.0826425552368,776.0934233665466,1.454488193802283,905.3377112306988,678.5065074943756,1.2488638577834081,131.23406235650137,11.7814066190614,101.0,1
17.36667513847351,999.3742108345032,826.8703818321228,1.4628175409681614,919.1292650645835,713.1812864522578,1.2600734388776493,139.1562493383225,11.616381370955834,101.0,1
17.66663408279419,1005.3279399871826,877.1673440933228,1.4758151671216844,939.8373499531859,768.9379047409383,1.2666734093154222,126.50149772051118,11.982940042246064,106.0,1
17.966708421707153,1006.4271688461304,891.0223841667175,1.5689433163284565,952.2431361075509,771.5370662888668,1.2991328613088273,131.19699155158438,15.459000341129089,106.0,1
18.06663727760315,1006.4612627029419,893.8682675361633,1.6093457594968645,957.3889122008633,765.6316070434536,1.3518904269163339,137.30526820964062,14.751103970001365,119.0,1
18.258350372314453,1006.4691305160522,897.2395062446594,1.6920080536997977,962.4348400237233,756.4340189803173,1.395226826216753,147.53034936212825,17.00431177349045,101.0,1
18.341672658920288,1006.3025951385498,898.3399271965027,1.729696587386149,957.1210710993435,777.3781250874314,1.4702698823676028,130.57786901421375,14.864055290548068,101.0,1
18.466639518737793,1005.9374570846558,900.6208181381226,1.7832367285257318,963.9736640317936,790.808589143276,1.5197888242233764,117.55715871098647,15.094453038091368,119.0,1
18.608204126358032,1005.1060914993286,903.8916230201721,1.8527800402790384,965.7620508726536,795.4631342753095,1.5895270721384254,115.34596093634254,15.083284018749051,119.0,1
18.69986891746521,1003.6664009094238,910.8498692512512,1.8928750006997384,963.6427428116751,803.454255661389,1.645502212937754,114.61112958988097,14.17341670514717,119.0,1
18.841628313064575,1003.4753084182739,910.0111126899719,1.9553731701791932,965.7556992996375,805.5355516336399,1.715073273504494,111.07615302169084,13.768169896890031,106.0,1
18.94158172607422,1003.0759572982788,911.3179445266724,1.9907852591122563,966.073930964442,803.290905300385,1.7836636091839004,114.18840202405751,11.867196386680904,106.0,1
19.099990606307983,1000.6492137908936,913.1874442100525,2.0562032477284626,965.3424964749169,802.119971586014,1.8351521911718076,116.54418802635259,12.665292597603997,119.0,1
19.224931478500366,999.3478655815125,914.7161245346069,2.1110308319256363,961.1975871727761,802.3519020159897,1.893475364990246,118.6640731008228,12.465010065395793,101.0,1
19.341610431671143,998.1030225753784,915.7243967056274,2.163258938358632,972.1124238426534,797.436431428406,1.9329173696125455,121.10967736688379,13.19759973557327,101.0,1
19.483265161514282,996.575117111206,917.3192977905273,2.222111433325167,963.0162710068952,811.4536523948594,1.9950359034931122,111.05733216178986,13.010469490073747,106.0,1
19.599985122680664,995.3919649124146,917.8334474563599,2.2764034822623977,965.5369353754277,815.3220995671047,2.051059704123527,106.77031064264193,12.911247426889677,106.0,1
19.724907875061035,994.111180305481,919.1349744796753,2.3297221416175775,962.4493951897616,802.3158387585007,2.115456208792888,121.033793245342,12.276533644288325,101.0,1
19.841559648513794,992.9797053337097,919.3309545516968,2.381708942222486,969.2879471834917,802.5795813865805,2.175662737778307,119.13094702968101,11.805577899341168,101.0,1
19.983250856399536,991.1653995513916,920.7581281661987,2.443430936619583,975.7818102947779,800.618057889799,2.2218510865903727,121.12097797010416,12.695590231815482,101.0,1
20.099867343902588,990.1031851768494,920.7693338394165,2.4996762544724294,976.1253044785892,804.930342175791,2.2862097572121653,116.67927467404094,12.23072936045408,119.0,1
20.199856758117676,988.9485239982605,921.7967987060547,2.5442779790028607,978.5550087047429,805.7644139215324,2.3461107241932164,116.49695051347918,11.354147338286179,101.0,1
20.31660032272339,987.8848195075989,921.8242168426514,2.600822032675286,974.4272197947108,814.7715711976826,2.4118511483396206,107.89520809387025,10.82723412328847,101.0,1
20.458290815353394,986.2378835678101,922.6921796798706,2.6626855878193476,976.1927347139634,810.8666718209685,2.4586682471733794,112.27577309196015,11.689332566496804,101.0,1
20.574939966201782,985.5758547782898,922.6881861686707,2.7215054198796924,970.7317356070333,822.2207654475234,2.5281978309793955,101.55811390691774,11.075708991836969,101.0,1
20.68324375152588,984.440267086029,922.8631258010864,2.7696654668146197,965.3909554011285,834.1339769628181,2.5771655784330125,90.75096764901221,11.02943116100552,101.0,1
20.799911737442017,975.9543538093567,925.1075387001038,2.8014398899745903,955.607081378988,835.4536569189206,2.617974184158585,91.93383497815157,10.511810628645858,101.0,1
21.116618633270264,920.4122424125671,948.4082460403442,2.8373338889187036,908.5281561148054,864.4664851631795,2.671034554084848,84.77883418809054,9.528250021812848,101.0,1
21.45835828781128,864.8889064788818,966.478168964386,2.8704441320319343,861.4500804461161,890.098108025116,2.7104702165761663,76.45743412886827,9.165830187798155,101.0,1
21.75828194618225,814.6582245826721,980.7488322257996,2.900376331552558,810.1587002630434,905.3995603933397,2.7443363224655877,75.48349809584118,8.940433955866409,101.0,1
22.058300018310547,759.4498991966248,994.6500658988953,2.928030018561782,757.4590935985566,929.0419299063826,2.7760617841948383,65.63833342903621,8.707138449280828,101.0,1
22.358315229415894,706.3127756118774,1005.0486326217651,2.948299771885926,705.8901166564577,956.1752374520229,2.796872502372094,48.875222720826365,8.676143446332592,101.0,1
22.658260345458984,657.3825478553772,1012.2945308685303,2.97696520034605,648.7858767674844,983.6740681994632,2.8179773805779855,29.883668402404528,9.109331066696683,101.0,1
24.949861764907837,246.48576974868774,1055.6650161743164,3.130832189778002,219.19352581072053,1076.4216815468817,2.994822539340553,34.28856568242771,7.7927789431154695,101.0,1
25.50828456878662,144.63239908218384,1055.180549621582,-3.123265568738409,122.7255401866778,1083.7901214740775,3.0177719561199052,36.03356863052443,8.14446799415325,101.0,1
26.024930238723755,98.64956140518188,1054.9299716949463,-2.9906130229469507,92.91899705095271,1087.6498946642203,3.1263200200191217,33.21795789829929,9.525553073928183,101.0,1
26.166592597961426,96.46927565336227,1054.1695356369019,-2.92667554941163,81.25864254397197,1093.349928973514,-3.1144933542057216,42.02935380897634,10.761167532113415,101.0,1
26.283244609832764,93.71510148048401,1053.273320198059,-2.876773098440018,76.40080437548313,1090.6852872854854,-3.047010821512328,41.22426670774038,9.753903045960254,101.0,1
26.408327102661133,91.37745201587677,1053.8514852523804,-2.8101155567629563,65.75384909556402,1091.7168257323285,-2.989626357249309,45.72037878539787,10.28521124488298,101.0,1
26.50833010673523,91.2347286939621,1052.1414279937744,-2.7833805839660157,74.93426240316096,1090.7108223861571,-2.9482266807797717,41.872465715463996,9.444985616633181,101.0,1
26.666586875915527,87.24988251924515,1050.187587738037,-2.7064586213843094,73.99205397892374,1087.427289416,-2.8948674870174194,39.52929797843905,10.795032823624622,101.0,1
26.783207654953003,84.95510369539261,1049.377202987671,-2.654042897709433,79.00107275177766,1084.575134423188,-2.8346808533523857,35.69796719446208,10.349792478212564,101.0,1
26.908299446105957,83.43133330345154,1048.0974912643433,-2.597294084630018,66.26527476184174,1085.5516655096314,-2.778635980511621,41.20059143083244,10.390125282916674,106.0,1
27.041568279266357,80.84616810083389,1046.3635921478271,-2.538503499780486,65.54726379439015,1083.7540307185484,-2.7172107027343837,40.39927436834233,10.239168497846185,101.0,1
27.166592121124268,79.60966974496841,1044.6723699569702,-2.47935971293452,69.93142089646828,1073.2921480947473,-2.6411508148543286,30.211921511699263,9.269947302775984,101.0,1
27.666597366333008,71.85333967208862,1035.9526872634888,-2.251081315121343,83.02035142448685,1064.4972604945278,-2.4293349033266387,30.6511796252665,10.2131782872264,101.0,1
27.783252000808716,70.08882611989975,1033.9128971099854,-2.2060216848397394,78.3469879033486,1062.8523317482882,-2.3739011142656383,30.094652568624493,9.618782773168373,101.0,1
27.924896240234375,68.28813254833221,1032.044529914856,-2.140908276080915,76.38948030965852,1063.1704482495293,-2.3297812932257704,32.16293872964191,10.821626746302252,101.0,1
28.04155707359314,67.95629113912582,1030.2940607070923,-2.0846840812745695,75.90139142011137,1064.7207111799478,-2.2667253206569145,35.33155645106904,10.430194713939075,101.0,1
28.15831446647644,67.38042086362839,1028.4372568130493,-2.0324400781093077,73.07255944247851,1063.035040298495,-2.2002525627577585,35.06290153005898,9.614947119960148,101.0,1
28.258254051208496,66.94541126489639,1027.0159244537354,-1.9837966676420058,71.29907474190699,1059.3227695673522,-2.12697319145877,32.598874625764104,8.20341054005491,101.0,1
28.38325071334839,66.4793848991394,1025.1812934875488,-1.9262158586765443,71.29479225191298,1059.3893595099871,-2.0811332311259063,34.54533150758063,8.8761116146047,101.0,1
28.483278036117554,66.61800295114517,1023.7911939620972,-1.8773013031808952,73.74578827642216,1062.2585845134897,-2.029528882736351,39.12218628191169,8.721997834019604,101.0,1
28.61657428741455,66.12807512283325,1021.7481851577759,-1.8143673777950822,72.07684083411802,1054.6666412530938,-1.985499874461873,33.45164517908093,9.805169796543746,101.0,1
28.74154543876648,66.80653244256973,1022.2486257553101,-1.756867731024372,75.65293228039052,1054.4830414656574,-1.9357772184029378,33.426282268270306,10.250758541640886,106.0,1
28.941517114639282,59.949323534965515,985.3519797325134,-1.7218696366348671,68.58489586857387,1023.8552804669519,-1.8903351732730713,39.45981851169096,9.652364242775638,119.0,1
29.241543292999268,49.74052309989929,927.9718995094299,-1.6948739153091374,53.97879095401705,975.087727323113,-1.8756825577161544,47.306068796422686,10.359572109412191,106.0,1
29.54153084754944,44.1400408744812,875.3790259361267,-1.6675288138641002,41.48555281736881,926.8505318714658,-1.8509186776885134,51.53990910058924,10.507465202617766,119.0,1
29.841506719589233,38.74082863330841,822.3549723625183,-1.6366837366878855,31.063260439444914,875.893128236891,-1.8188204385979767,54.08585016249678,10.435664313880588,101.0,1
30.133248329162598,35.04971042275429,769.8282599449158,-1.6129424188056842,17.935495665125707,812.6085599221592,-1.7634552690201584,46.07657119310383,8.623751079774093,101.0,1
30.43328332901001,33.77018868923187,717.303454875946,-1.589987004991368,8.359585733784039,764.8666406717659,-1.7538488698971284,53.92546138520372,9.38859328224293,101.0,1
30.71654462814331,32.640401273965836,670.3619360923767,-1.567052599790878,2.9974479733566044,710.8850027865467,-1.7191602140446463,50.20780432046644,8.715124328544885,101.0,1
