time_stamp[s],x_true_pose[mm],y_true_pose[mm],theta_true[rad],x_pose[mm],y_pose[mm],theta[rad],p_err[mm],a_err[mm],num_particles,valid_pose
6.866878271102905,321.5300440788269,20.304854959249496,0.05051310600302891,276.64395424471786,33.59228774399067,-0.032098412327140294,46.81150425488078,4.733291339486334,1000.0,1
7.183459520339966,373.1708526611328,24.54948239028454,0.05167007624341461,322.02054076150796,29.804271117621642,-0.036130988072745215,51.41952170137188,5.030630422072654,1000.0,1
7.525121688842773,430.76232075691223,24.891449138522148,0.05273072876947049,367.39609957505843,15.32291291894514,-0.03617060546402814,64.08459153535252,5.093671244661376,1000.0,1
7.825126647949219,480.3818166255951,27.363093569874763,0.05192318249068521,421.4754670506569,36.31104350243355,-0.0324551709467515,59.58207640088082,4.834523534228305,1000.0,1
8.125106811523438,531.4783453941345,30.17108328640461,0.05249586350815664,470.766430815431,32.04487165407549,-0.030275427492026597,60.74082362512554,4.742445639159674,1000.0,1
8.425171375274658,582.6510190963745,32.607462257146835,0.053563354128796314,532.5259992417602,23.030317908691718,-0.0267124603856337,51.03174805252726,4.599465368651875,1000.0,1
8.716817617416382,633.677065372467,35.84698587656021,0.05433589212147467,580.242004758624,23.504198816687122,-0.025349152242185896,54.84204678173898,4.565616732350478,1000.0,1
9.016845703125,682.6022267341614,35.15799716114998,0.0463600083753511,633.2664004370845,28.601806502585475,-0.028149329378652856,49.76954281854307,4.269070587619191,1000.0,1
9.325196743011475,737.5450134277344,37.66878694295883,0.041775409941325496,684.3037588591048,24.48763943255288,-0.03264608826240408,54.84864481218015,4.264037752114142,1000.0,1
9.616911172866821,787.6855134963989,39.50135409832001,0.040266540160738475,738.1918046128035,27.251629279819856,-0.03395664728361524,50.98708637668045,4.252675382569871,1000.0,1
9.975182056427002,804.8896193504333,40.20917788147926,0.12755431194828412,756.1637358753453,33.82010581300449,0.031605723991622814,49.1429746995847,5.497449140156452,1000.0,1
10.275135040283203,808.4620833396912,41.359517723321915,0.2345880972637492,760.9020601441522,37.25594605006084,0.14764984301524103,47.73672702267926,4.981195046674818,1000.0,1
10.416788101196289,809.9896311759949,41.9149324297905,0.28807214413190496,764.055747373009,43.13758708050493,0.20265966658435586,45.95015305329375,4.8937744812304675,1000.0,1
10.875109195709229,815.7243132591248,43.871358036994934,0.45862493852747954,770.7555908233712,49.250152788776724,0.37495738164592346,45.28926396493587,4.793797891483911,1000.0,1
11.316785335540771,819.0029859542847,47.02579602599144,0.6297498003741236,774.4356766256456,52.692359281790914,0.558153843059293,44.92610599558546,4.102146184338587,1000.0,1
11.450148582458496,819.8435306549072,47.89086803793907,0.6791563083977542,774.1174216856159,53.51837508903382,0.6114074837167072,46.071095896251755,3.8817217211957407,1000.0,1
11.591870784759521,821.035623550415,48.75531792640686,0.7346502082333296,774.4012980500772,55.509580630041,0.669384383304129,47.120912337741935,3.739456314882911,1000.0,1
11.750128030776978,821.8498229980469,50.08639395236969,0.7985176270368698,776.7149241499586,61.57451249308334,0.7310220142685238,46.573983742349625,3.8672137472755383,1000.0,1
11.875110149383545,822.9328393936157,51.05818808078766,0.8506454692314805,775.1926560455427,59.69531577845217,0.7846888996620048,48.51520463703514,3.7790330674919552,1000.0,1
12.03352427482605,823.4748244285583,52.25231498479843,0.9144412767827342,772.3487721229327,61.54174526004848,0.8434800693412995,51.96312865096079,4.065777695546542,1000.0,1
12.15019941329956,824.0174055099487,53.383633494377136,0.9622091052433006,773.7963209248893,64.27131062581331,0.8968390225932734,51.38773054161948,3.745429842267926,1000.0,1
12.275175333023071,823.8924145698547,54.17225509881973,1.0128691982461342,776.1297151826747,62.05971649301491,0.9484225759799709,48.40958066328453,3.692519459724993,1000.0,1
12.391824960708618,824.7349262237549,55.143699049949646,1.0598613163695403,778.2953374979443,66.7833231345725,1.0054544486107826,47.87605090077677,3.1172838991032084,1000.0,1
12.533530473709106,825.1734375953674,56.23131990432739,1.1199590298447257,778.3633654282892,68.36525350727217,1.0559879280497662,48.35716287136526,3.6652741436529483,1000.0,1
12.66692066192627,825.5692720413208,57.49721825122833,1.177134870918319,778.5332162883841,74.99926720485976,1.1140467492606083,50.18677373938955,3.6146831083947006,1000.0,1
12.908457517623901,841.7205810546875,96.35299444198608,1.2062000168486395,789.0357835653338,106.27509946343328,1.1620814210173844,53.61096953563554,2.527809339174386,1000.0,1
13.233581781387329,860.9069585800171,145.0972557067871,1.2276023172001584,807.1681019713229,160.28911182643063,1.1875276599739397,55.844938910967954,2.296108724495779,1000.0,1
13.5502028465271,877.8147101402283,195.13320922851562,1.2466486694264052,828.2671141576401,211.48470714933578,1.203465608873359,52.17600743549063,2.4742071161474124,1000.0,1
13.866847038269043,895.7427144050598,251.0855793952942,1.267193096022983,847.6344001108178,262.63844705834333,1.2222536287982566,49.47604122677462,2.574841805543308,1000.0,1
14.208451271057129,913.0544066429138,304.27053570747375,1.2825983412552424,866.4280873947446,321.01931959016747,1.2383469534138252,49.54326804098997,2.535417760909734,1000.0,1
14.841915369033813,943.1482553482056,411.96298599243164,1.3190441412460439,898.7514085629681,424.3663353669223,1.2798900254814056,46.096887966299086,2.2433655838804127,1000.0,1
15.141901969909668,952.6515603065491,457.0530652999878,1.3468354270394338,911.1355747040644,477.56507088287407,1.3057815765883425,46.306796839968,2.352212363608784,1000.0,1
15.466906785964966,966.3437008857727,514.1662359237671,1.3609679201439417,922.913825438194,531.9187193911756,1.3216128292427527,46.918064225336664,2.2548806109918402,1000.0,1
15.758512496948242,977.6189923286438,566.0400390625,1.3769561456468944,935.5113416024969,589.3527949331383,1.3414203084945524,48.13043565104263,2.036053490293386,1000.0,1
16.05847692489624,987.1083498001099,615.2752041816711,1.3882038236366714,946.4879022960523,638.0372653963893,1.3520186722059497,46.56320635622588,2.073256458022123,1000.0,1
16.358511447906494,998.4735250473022,667.1175956726074,1.4084845743476369,954.4963466706675,688.6471353517276,1.3732323179153059,48.964408469470506,2.019805511885474,1000.0,1
16.658461570739746,1005.44273853302,721.7670679092407,1.418347698987421,960.448092734296,741.9534268249469,1.387243339247352,49.3153853967131,1.782148537562593,1000.0,1
16.9584321975708,1014.8859024047852,774.5287418365479,1.429745326404884,968.5045473640545,795.4387161093621,1.3937059619771799,50.87688197505883,2.0649034780413604,1000.0,1
17.258443117141724,1022.9613780975342,827.993631362915,1.4435852617193548,974.7309160253185,849.656255417727,1.4118597647632034,52.871984572546125,1.817737078542612,1000.0,1
17.55843949317932,1028.7220478057861,878.2409429550171,1.455698337357505,981.9372347801125,904.3947717443002,1.4217596950021232,53.59889448660652,1.9445409693673124,1000.0,1
17.91695237159729,1032.591700553894,907.3308706283569,1.5460751008236964,983.9738823778289,934.0294556490871,1.4743905764098972,55.46626620126949,4.107220705313202,1000.0,1
18.01698350906372,1032.544493675232,909.3616008758545,1.5856026777794299,981.1218081979105,939.1308345858394,1.530204098372295,59.418009537338314,3.1741047910491766,1000.0,1
18.133646488189697,1033.170223236084,912.3659133911133,1.6347788623843285,977.9659388130178,938.6463358572751,1.5779293773497125,61.14060535898157,3.257235559975629,1000.0,1
18.258556127548218,1032.8176021575928,914.1655564308167,1.6906181867337144,977.7935512593453,937.4183668083955,1.6278434182695412,59.735578742559795,3.5967292929080665,1000.0,1
18.375280141830444,1032.668948173523,916.3398742675781,1.7406399499771088,977.3173705876438,936.4230536138176,1.6871124027247888,58.8823507844143,3.0669025452450227,1000.0,1
18.533647775650024,1032.6189994812012,919.284462928772,1.8125980854328367,976.5212148320617,937.327628219789,1.7417066015370632,58.928068492529015,4.061782830647464,1000.0,1
18.633628606796265,1032.1087837219238,921.0274815559387,1.8486562417888608,975.6440158392303,938.731800641016,1.795156451482757,59.17527292976933,3.0653121893746658,1000.0,1
18.77528738975525,1030.8187007904053,923.5732555389404,1.9067807346004206,975.3173809177557,934.3786318017387,1.8442132805665206,56.54336975974115,3.5848510510212517,1000.0,1
18.916964292526245,1029.4692516326904,925.5566596984863,1.9683830799609745,975.9501672513204,935.3545412125646,1.9008877143940563,54.4085551653793,3.867199583677031,1000.0,1
19.033676862716675,1028.356671333313,927.3380637168884,2.0150329481622156,973.5556498493847,935.9795463154744,1.9562364767435418,55.47816847358635,3.3687896625515763,1000.0,1
19.150256395339966,1026.788592338562,929.9988746643066,2.071554782477257,972.4406864155092,937.1722795888948,2.005366159915092,54.81927230849666,3.7923287245964485,1000.0,1
19.25028133392334,1023.5426425933838,936.5315437316895,2.111158182790299,970.3051223843247,940.313949928518,2.057658549416254,53.371716804387894,3.065303197830033,1000.0,1
19.41704535484314,1022.9207277297974,935.6441497802734,2.1860584461155357,969.1527604589288,944.5808033032916,2.111334465577253,54.5055784358965,4.281368713261298,1000.0,1
19.517009973526,1021.8279361724854,937.9318356513977,2.2229196303936534,969.4925600471686,945.5761853242782,2.1596705734757315,52.89071446009824,3.623904019579643,1000.0,1
19.650323152542114,1020.7608938217163,938.6714696884155,2.28649025619779,966.5578173044346,949.8272205277705,2.2148707526876743,55.33917491911191,4.103495281952002,1000.0,1
19.79197335243225,1018.9770460128784,940.2244091033936,2.345253341587369,967.0031987928376,948.656177612333,2.272672427330335,52.653352362793484,4.158580060128951,1000.0,1
19.916953563690186,1017.6020860671997,940.4728412628174,2.4064800756916878,967.3800012729959,946.7854133851633,2.3270589677769924,50.61725365797734,4.550494287765102,1000.0,1
20.033647060394287,1016.1226987838745,941.6348934173584,2.4536055771275977,966.3465051938699,950.0477271337296,2.386529863994061,50.482127723075685,3.8431552703818768,1000.0,1
20.167046070098877,1015.0070190429688,942.186713218689,2.51905284751814,965.0953142627325,951.8772371189054,2.4408163474964892,50.84372653071495,4.4826212551157605,1000.0,1
20.291953563690186,1013.3715867996216,943.0180191993713,2.573857008464525,964.2747711501028,951.6390362543759,2.5005047328253083,49.847961262076865,4.202775811807396,1000.0,1
20.40862202644348,1012.5659704208374,942.6416158676147,2.629486603922183,960.6393520771474,956.5264055089411,2.561556019255554,53.75091697817939,3.8921358012539424,1000.0,1
20.533650636672974,1011.319637298584,943.3549642562866,2.687445827505622,958.3542832506331,958.3221126776591,2.616432809940509,55.03947911537844,4.068746196969364,1000.0,1
20.63367009162903,1010.2262496948242,943.7150955200195,2.733982213695602,960.0196764119554,954.4886363909321,2.6685307037769546,51.34948085137084,3.7500952810971326,1000.0,1
20.7919442653656,993.8095808029175,949.7016668319702,2.768816606836032,941.955842500573,962.9338658952622,2.7243350590040865,53.515430185868944,2.548604956979766,1000.0,1
21.10873317718506,940.0599002838135,972.3681211471558,2.8043039537659595,888.3084223752205,984.8549705054506,2.7589919288212155,53.23661214446628,2.596187790525342,1000.0,1
21.450283527374268,886.3511681556702,992.3406839370728,2.8382890762455593,833.6766588692,1009.6041294186844,2.7973164171390787,55.431313158421666,2.347560442229592,1000.0,1
21.767014026641846,835.1906538009644,1009.3955993652344,2.871365210345534,778.1149904726338,1030.6870909047368,2.823389514602001,60.91764076477056,2.7488048853081697,1000.0,1
22.067105531692505,783.7164998054504,1024.2705345153809,2.8986887787844506,727.1912136031088,1047.0745866061716,2.8500167660763536,60.95188899464991,2.7887009085810703,1000.0,1
22.36709952354431,728.1026244163513,1037.329912185669,2.9216626101840215,671.4314875331381,1064.2478442307024,2.873522293746582,62.739085275583406,2.7582369562895424,1000.0,1
22.667073726654053,678.0712604522705,1042.859435081482,2.938162509812706,618.9885863235576,1077.3221806003387,2.889567652687882,68.39914627316021,2.784280219293655,1000.0,1
22.967034578323364,627.0999312400818,1058.2890510559082,2.974973291923196,567.2216041830022,1090.6809469100249,2.9183427980964276,68.07825620694561,3.244688288015501,1000.0,1
23.26709794998169,573.4673142433167,1066.4888620376587,2.9953851582257847,515.052737428672,1100.460908181678,2.9402861943227436,67.57486739643218,3.1569380871879207,1000.0,1
23.56708073616028,520.6369161605835,1074.5552778244019,3.024475594314308,460.9497400215816,1109.9642982092319,2.9671238045982644,69.3999835739285,3.2860154982510834,1000.0,1
23.858680963516235,464.3385410308838,1080.3313255310059,3.0426915306194813,410.08863974750943,1117.4444367322305,2.9849433817495172,65.730014546555,3.3087252049421143,1000.0,1
24.167094230651855,410.2382957935333,1086.4629745483398,3.0591798284795493,360.2650142176947,1124.3295178768922,3.0059453550272277,62.69931399234907,3.0501106534192512,1000.0,1
24.442047357559204,361.49924993515015,1090.9929275512695,3.078629509263758,311.1655653010195,1129.056371070051,3.0178030284846455,63.10551118052674,3.4851006312767736,1000.0,1
24.717029333114624,312.1959865093231,1097.1089601516724,3.0986705798006278,261.13023733629257,1132.676135497959,3.0452208375084653,62.2313000082464,3.062444649402813,1000.0,1
25.000375747680664,260.7300281524658,1098.8839864730835,3.1078748603532738,205.9357496125522,1137.1366509711852,3.061563256939699,66.82573831925815,2.6534594180814968,1000.0,1
25.275312185287476,210.30548214912415,1100.7812023162842,3.1204950495832575,152.62444765713266,1141.9354379000445,3.073689588161266,70.8574120791181,2.681755397642518,1000.0,1
25.542137622833252,160.51062941551208,1102.3021936416626,3.1353480031573433,100.41268020162616,1144.6392728791611,3.090898770424819,73.5132081878967,2.5467534381683827,1000.0,1
25.91711735725403,128.97267937660217,1103.135108947754,-3.0522696503925375,66.42421518922205,1146.6445532425516,-3.1320815362095624,76.19305818145168,4.572884212295562,1000.0,1
26.017081260681152,125.97915530204773,1102.6736497879028,-3.0096555764716295,66.10483811678294,1144.708458960777,-3.0741735590886043,73.15640122779173,3.6966081066510683,1000.0,1
26.175477504730225,122.41575121879578,1101.5576124191284,-2.9403390997331345,59.589470055410814,1143.089824456986,-3.014368914118646,75.31312131081981,4.2415959224266695,1000.0,1
26.300420999526978,119.98581141233444,1101.1021137237549,-2.885242158845787,55.56877644758095,1144.753287178449,-2.9566201229475673,77.81374774178447,4.089656093268304,1000.0,1
26.417076587677002,117.78110265731812,1100.2655029296875,-2.8350986368307485,51.73676761751747,1142.5921722275166,-2.9009896321677804,78.44361748859639,3.7752759407281156,1000.0,1
26.55875587463379,115.554578602314,1099.1822481155396,-2.7681210422738283,51.10908215011444,1140.705949392919,-2.844506592152978,76.6644623064918,4.376569623861326,1000.0,1
26.675450563430786,113.29368501901627,1098.2266664505005,-2.7171126920114292,48.64057948787398,1138.770099758901,-2.7804067810119193,76.31378669187993,3.626484167853487,1000.0,1
26.800392627716064,111.29675805568695,1097.5894927978516,-2.656508565536432,45.40964632520791,1136.883759940299,-2.723718041811773,76.7147373224118,3.8508193338616765,1000.0,1
26.9003689289093,109.77496206760406,1096.6384410858154,-2.614514583715598,40.90975588726246,1137.2606122079064,-2.670822056275509,79.95359534713498,3.226180532731598,1000.0,1
27.058782815933228,107.89743065834045,1093.8602685928345,-2.5435928170506776,35.64709004134521,1136.9765353755554,-2.61331500253461,84.1375313433345,3.9947869666576135,1000.0,1
27.15883731842041,106.50219023227692,1092.670202255249,-2.4991764583889085,36.582220724246845,1134.2285211390877,-2.564742629003399,81.33815835421082,3.756664855044988,1000.0,1
27.275493144989014,105.17263412475586,1091.3896560668945,-2.4439667118498547,32.90282098809384,1134.6087289682305,-2.506689916336153,84.20697211786585,3.5937748946009167,1000.0,1
27.392085790634155,103.46253961324692,1089.8921489715576,-2.3911874419268364,31.298038053020054,1131.440104606529,-2.4468335762313203,83.2703302676382,3.1882886418650727,1000.0,1
27.533778429031372,102.33152657747269,1087.993860244751,-2.3247661774124277,35.97260631199069,1130.4811054083718,-2.38715269120119,78.79512865903718,3.574483938630792,1000.0,1
27.65045142173767,100.9036973118782,1086.4890813827515,-2.26921201703482,33.61299406873631,1128.3687251966835,-2.327817082671602,79.2587112495428,3.3578229190747937,1000.0,1
27.775453329086304,100.19540786743164,1084.761619567871,-2.213226141446937,37.78944565147225,1126.0217947470085,-2.272626689450009,74.81247339790909,3.4034007013402716,1000.0,1
27.892102479934692,98.75615686178207,1082.939863204956,-2.159859872303543,38.40617782807116,1122.7811251876444,-2.216232516666785,72.31490942912504,3.2299146020057146,1000.0,1
28.03379797935486,97.91409224271774,1080.8945894241333,-2.092845864149732,39.48213160017187,1120.926023602331,-2.159709271823093,70.82944124370464,3.8309910635462265,1000.0,1
28.150423765182495,96.88271582126617,1078.9376497268677,-2.040791258938589,41.39531602806335,1120.3261813780316,-2.107745495813798,69.223277068123,3.8361951934686713,1000.0,1
28.275402069091797,96.5600460767746,1076.9634246826172,-1.979179083345641,43.94560143257662,1120.6648078388157,-2.0455781936635624,68.39656917552404,3.8043887846404507,1000.0,1
28.392136812210083,95.32857686281204,1073.2475519180298,-1.9249342491147041,44.48180999778043,1119.4889266126845,-1.9826307305126654,68.72887627684837,3.305764876858243,1000.0,1
28.55052375793457,96.23390436172485,1074.8382806777954,-1.8563869869260003,39.785205867847566,1114.6420859481407,-1.9259646389018084,69.07096695176801,3.9865058066438723,1000.0,1
28.650546312332153,94.72383558750153,1071.6849565505981,-1.806141079711642,41.17984799964073,1115.6946598949899,-1.868472749755941,69.3095418775103,3.5713416235403583,1000.0,1
28.767205238342285,93.9139872789383,1064.0050172805786,-1.774050203997886,36.43575398440212,1096.2700248019985,-1.815577585049595,65.91493012222958,2.379343668494468,1000.0,1
29.067164182662964,80.89007437229156,1001.8085241317749,-1.7424899355971586,22.966014544710657,1046.6479251614287,-1.7761379744225922,73.25140675514218,1.9278906135896803,1000.0,1
29.367090940475464,71.74055278301239,947.0030665397644,-1.7138716744162799,14.293341908292428,995.3136444185122,-1.7490827661932382,75.06060199773982,2.0174469508675124,1000.0,1
29.69214129447937,63.921913504600525,890.6352519989014,-1.6697991185823267,4.229537987776546,945.8830745322603,-1.715240573156654,81.3357337799263,2.6036035620444062,1000.0,1
29.992184162139893,59.16569381952286,837.8865718841553,-1.624704097154481,-2.1203302605700722,887.2782144278361,-1.6737613516695082,78.71156903980808,2.810773638210159,1000.0,1
30.29211187362671,57.22010135650635,782.4381589889526,-1.5959707949678261,-3.6768106947048014,835.2336702873823,-1.6412614783847659,80.59652542532812,2.5949650110537945,1000.0,1
30.583871126174927,55.47545850276947,736.1916899681091,-1.5722724059706061,-4.2255355725201635,785.185734811669,-1.6234552794593828,77.23098551559812,2.932562634258937,1000.0,1
30.883888959884644,55.064186453819275,684.4216585159302,-1.5559849227062412,-4.6771283556203995,733.0100329914784,-1.6024834509558907,77.00555063978624,2.664169422274748,1000.0,1
31.14221978187561,54.3208010494709,642.3835158348083,-1.538324372445322,-7.921225933534736,679.6765548915032,-1.5823786305709797,72.55922191587621,2.5241230601801035,1000.0,1
