time_stamp[s],x_true_pose[mm],y_true_pose[mm],theta_true[rad],x_pose[mm],y_pose[mm],theta[rad],p_err[mm],a_err[mm],num_particles,valid_pose
0.13338828086853027,4.233136773109436,6.364420056343079,0.043478702866509636,-5002.177137379206,-2.0505605993370835,0.009546008467202358,5006.417346270415,1.9442001765875134,1000.0,1
5.208408832550049,56.12904578447342,8.91786441206932,0.03992757292218002,-4951.671479844899,3.4073244970040575,0.0023719667220592124,5007.803557503426,2.151777732322269,1000.0,1
5.5667500495910645,113.9051616191864,9.635116904973984,0.050737194740603835,-4916.29964922424,6.654708980409163,0.021914043152207647,5030.205693792625,1.6514449382808967,1000.0,1
5.88342809677124,162.78117895126343,12.310847640037537,0.050410431899759696,-4870.649323597904,-13.189228712944354,0.020753839015635038,5033.495095645408,1.6991976069980526,1000.0,1
6.208373785018921,214.35165405273438,14.689899981021881,0.05125492990057785,-4836.342905520988,-30.287616020656166,0.02522523780384729,5050.894822806477,1.491391499167696,1000.0,1
6.541824102401733,263.61826062202454,17.389681190252304,0.05143338916596296,-4811.705291949164,-40.453717137664796,0.048860221874225535,5075.653162107706,0.1474316257976628,1000.0,1
6.866878271102905,321.5300440788269,20.304854959249496,0.05051310600302891,-4754.4005889837335,-22.301944959697266,0.05182603255746861,5076.109448294256,0.07522515038004761,1000.0,1
7.183459520339966,373.1708526611328,24.54948239028454,0.05167007624341461,-4716.169198007298,-0.07829793969670845,0.0376814485886779,5089.399638356349,0.8014893257964005,1000.0,1
7.525121688842773,430.76232075691223,24.891449138522148,0.05273072876947049,-4685.363495760019,-19.00537255237382,0.043508617628249945,5116.314132398987,0.5283880465925125,1000.0,1
7.825126647949219,480.3818166255951,27.363093569874763,0.05192318249068521,-4645.092953826078,-40.85816332217975,0.03161865675016107,5125.9287707135145,1.163363629946776,1000.0,1
8.125106811523438,531.4783453941345,30.17108328640461,0.05249586350815664,-4615.813631890246,-57.04915634805689,0.027559297656007557,5148.030892449854,1.4287599788781915,1000.0,1
8.425171375274658,582.6510190963745,32.607462257146835,0.053563354128796314,-4570.937373524366,-59.026259843991866,0.03626054366185926,5154.402977996709,0.9913780134702784,1000.0,1
8.725141525268555,635.1029872894287,35.862479358911514,0.054781031886257096,-4510.438259576341,-69.17155815948585,0.034083618149703676,5146.613145772116,1.185874453940606,1000.0,1
9.016845703125,682.6022267341614,35.15799716114998,0.0463600083753511,-4442.9490785054995,-90.01090082603044,0.035676885851024194,5127.079425527492,0.6120978326650778,1000.0,1
9.31684160232544,736.2686395645142,37.7446785569191,0.04227801714965681,-4375.17292840322,-97.91197363599359,0.04567034659350949,5113.241401501853,0.19436615985072053,1000.0,1
9.616911172866821,787.6855134963989,39.50135409832001,0.040266540160738475,-4334.258320546804,-83.48098574048173,0.045068573978282955,5123.42007793675,0.27513627082439357,1000.0,1
9.975182056427002,804.8896193504333,40.20917788147926,0.12755431194828412,-4323.5547892721515,-88.23462879504756,0.1142350058121397,5130.052618034811,0.763140027643775,1000.0,1
10.116822957992554,805.9633374214172,40.794070810079575,0.17763419805341474,-4329.590685538235,-64.95533310079306,0.1799348635974282,5136.64268361783,0.13181842574314037,1000.0,1
10.275135040283203,808.4620833396912,41.359517723321915,0.2345880972637492,-4328.30090462377,-73.42766438127241,0.25232549386967845,5138.045357106807,1.0162779650694165,1000.0,1
10.416788101196289,809.9896311759949,41.9149324297905,0.28807214413190496,-4328.904195025814,-99.36268602150767,0.3083086799812763,5140.8354498515455,1.159468096134167,1000.0,1
10.575145721435547,812.3740553855896,42.37750917673111,0.3455189145738116,-4326.281420516827,-95.58618636012999,0.3659883110558476,5140.50718133027,1.1728100276005973,1000.0,1
10.71679162979126,813.7264847755432,42.98701137304306,0.40045986392469113,-4348.802358172043,-115.85117517253683,0.4314703353416687,5164.971793124414,1.7767691329038868,1000.0,1
10.875109195709229,815.7243132591248,43.871358036994934,0.45862493852747954,-4371.73643488747,-105.60180374712422,0.4888042861279495,5189.613785211321,1.729149245965198,1000.0,1
11.01677393913269,816.7369365692139,44.82490196824074,0.5137889889930923,-4366.117067787328,-118.63789151572279,0.5504023810357203,5185.431102167709,2.097792837700452,1000.0,1
11.175156116485596,818.2365298271179,45.778024941682816,0.5735720762388502,-4356.8786168976285,-125.1325152128395,0.6132242170980595,5177.936576919014,2.271900319890939,1000.0,1
11.316785335540771,819.0029859542847,47.02579602599144,0.6297498003741236,-4355.628521332932,-115.06785733887544,0.6731398093221678,5177.169650365993,2.4860643857578046,1000.0,1
11.450148582458496,819.8435306549072,47.89086803793907,0.6791563083977542,-4364.867420726725,-114.52335752313586,0.7284790626246942,5187.254189842756,2.825985651164703,1000.0,1
11.591870784759521,821.035623550415,48.75531792640686,0.7346502082333296,-4379.6196687384845,-121.73786207475094,0.7891703872095462,5203.449182382725,3.1237761536350948,1000.0,1
11.750128030776978,821.8498229980469,50.08639395236969,0.7985176270368698,-4376.1163931125375,-134.54928375570614,0.8544885141923135,5201.244381617701,3.2068956096099157,1000.0,1
11.875110149383545,822.9328393936157,51.05818808078766,0.8506454692314805,-4376.033626362524,-131.70099316522504,0.9114306581837811,5202.177739215242,3.4827347838720604,1000.0,1
12.03352427482605,823.4748244285583,52.25231498479843,0.9144412767827342,-4385.768893443641,-103.61446830800755,0.962692536359545,5211.575056192228,2.764593529941451,1000.0,1
12.15019941329956,824.0174055099487,53.383633494377136,0.9622091052433006,-4389.163429988897,-96.55588527740532,1.001642479949413,5215.336641378192,2.2593659426181745,1000.0,1
12.275175333023071,823.8924145698547,54.17225509881973,1.0128691982461342,-4381.3881972088275,-100.24536371873198,1.064211870049638,5207.570551452984,2.9417184032660977,1000.0,1
12.391824960708618,824.7349262237549,55.143699049949646,1.0598613163695403,-4387.0148715394525,-73.14558781001801,1.110516249789237,5213.328504478484,2.9023138964648028,1000.0,1
12.533530473709106,825.1734375953674,56.23131990432739,1.1199590298447257,-4390.929622022361,-65.25103815708276,1.164363995329142,5217.517521951756,2.544217111681147,1000.0,1
12.66692066192627,825.5692720413208,57.49721825122833,1.177134870918319,-4390.263358635457,-69.5165200149046,1.2250198263278678,5217.378893749329,2.743605847139289,1000.0,1
12.908457517623901,841.7205810546875,96.35299444198608,1.2062000168486395,-4370.901979729611,-46.457563335277555,1.2776827832243358,5214.578488872338,4.095660821247069,1000.0,1
13.225264072418213,860.3535890579224,143.9090371131897,1.2267875107082375,-4374.959294203944,6.1492644579435325,1.2992067464183494,5237.125045347849,4.149316561752508,1000.0,1
13.5502028465271,877.8147101402283,195.13320922851562,1.2466486694264052,-4392.303318535133,78.70199380785485,1.3055184408802443,5271.404012603607,3.3729894452047127,1000.0,1
13.866847038269043,895.7427144050598,251.0855793952942,1.267193096022983,-4385.649255280986,142.446077586166,1.3223482798378516,5282.509221839332,3.160159250860245,1000.0,1
14.208451271057129,913.0544066429138,304.27053570747375,1.2825983412552424,-4397.829906528112,216.38208550853602,1.3405447000166921,5311.611484998169,3.3200817951819888,1000.0,1
14.525145053863525,927.6794195175171,357.06111788749695,1.30359335415002,-4404.857279748998,295.6904248901512,1.3569710677868196,5332.889836756727,3.058317711446521,1000.0,1
14.841915369033813,943.1482553482056,411.96298599243164,1.3190441412460439,-4423.1591448011595,399.4208304304001,1.3656307403513828,5366.322056917939,2.669215510603857,1000.0,1
15.141901969909668,952.6515603065491,457.0530652999878,1.3468354270394338,-4413.352942685648,460.58549133737495,1.3825013491101419,5366.005665685254,2.043506807094066,1000.0,1
15.466906785964966,966.3437008857727,514.1662359237671,1.3609679201439417,-4403.7384202778385,518.903707891435,1.3760480851067192,5370.084210855703,0.8640298067282044,1000.0,1
15.758512496948242,977.6189923286438,566.0400390625,1.3769561456468944,-4394.456795548599,577.9787693577514,1.3762595643034397,5372.089053988026,0.03991117106750937,1000.0,1
16.05847692489624,987.1083498001099,615.2752041816711,1.3882038236366714,-4393.906061258935,623.9354223763447,1.3823272711175636,5381.0213799430585,0.3367016574318485,1000.0,1
16.358511447906494,998.4735250473022,667.1175956726074,1.4084845743476369,-4386.44474358694,697.596384406161,1.3927564509570722,5385.004523343826,0.9011550899403432,1000.0,1
16.658461570739746,1005.44273853302,721.7670679092407,1.418347698987421,-4381.99551601431,760.4316510087483,1.3911741470130883,5387.57699680907,1.556929842508655,1000.0,1
16.9584321975708,1014.8859024047852,774.5287418365479,1.429745326404884,-4379.229146554035,824.6872316620058,1.3904675081585254,5394.348249372262,2.2504532139982882,1000.0,1
17.258443117141724,1022.9613780975342,827.993631362915,1.4435852617193548,-4367.431661229823,891.0217512098939,1.387740769866088,5390.761510428769,3.1996536922448953,1000.0,1
17.55843949317932,1028.7220478057861,878.2409429550171,1.455698337357505,-4355.098804701326,940.0096760856292,1.3862939937777181,5384.175178082802,3.976575966997679,1000.0,1
17.91695237159729,1032.591700553894,907.3308706283569,1.5460751008236964,-4331.096273560027,960.6081987810225,1.4172518098812568,5363.952568521592,7.381030873987675,1000.0,1
18.01698350906372,1032.544493675232,909.3616008758545,1.5856026777794299,-4298.492974955133,953.6406200308888,1.441006010318916,5331.221353824861,8.284778777144092,1000.0,1
18.133646488189697,1033.170223236084,912.3659133911133,1.6347788623843285,-4274.578259875886,934.7843911190138,1.4706922472911048,5307.795827659637,9.401470519429347,1000.0,1
18.258556127548218,1032.8176021575928,914.1655564308167,1.6906181867337144,-4224.452769403649,902.8780370770734,1.4754173680462714,5257.282488870922,12.33009865855054,1000.0,1
18.375280141830444,1032.668948173523,916.3398742675781,1.7406399499771088,-4184.070085677677,898.367874143147,1.4813251248401198,5216.7699911051495,14.85764504552242,1000.0,1
18.533647775650024,1032.6189994812012,919.284462928772,1.8125980854328367,-4141.193611065778,887.5868032750847,1.4886403885364416,5173.909708400647,18.561408772941807,1000.0,1
18.633628606796265,1032.1087837219238,921.0274815559387,1.8486562417888608,-4107.446108715413,864.2087648329897,1.5133094389155926,5139.868953479905,19.21395647784386,1000.0,1
18.77528738975525,1030.8187007904053,923.5732555389404,1.9067807346004206,-4061.7199787923505,838.555196927732,1.5206054715970743,5093.248302737311,22.12621272244631,1000.0,1
18.916964292526245,1029.4692516326904,925.5566596984863,1.9683830799609745,-4014.9892829145742,816.439972457136,1.5350822565440394,5045.638548112742,24.82630844133373,1000.0,1
19.033676862716675,1028.356671333313,927.3380637168884,2.0150329481622156,-3748.1294749312315,675.405471592471,1.4073657989224355,4783.125540525948,34.81676300018573,1000.0,1
19.150256395339966,1026.788592338562,929.9988746643066,2.071554782477257,-3923.3507216120274,771.3470134949715,1.570892099878475,4952.6810558092375,28.685858672608138,1000.0,1
19.25028133392334,1023.5426425933838,936.5315437316895,2.111158182790299,-3892.6402605449202,752.867271315208,1.6009958529012516,4919.612474786163,29.230148369203228,1000.0,1
19.41704535484314,1022.9207277297974,935.6441497802734,2.1860584461155357,-3750.3636655525534,675.361458678091,1.558849497508055,4780.375610602189,35.9364256280464,1000.0,1
19.517009973526,1021.8279361724854,937.9318356513977,2.2229196303936534,-3750.913482915225,676.8557488960934,1.6077431851381763,4779.8767114383645,35.24701396899957,1000.0,1
19.650323152542114,1020.7608938217163,938.6714696884155,2.28649025619779,-3754.4406613362544,678.8210002098058,1.6612200562779709,4782.266424915216,35.82534351070685,1000.0,1
19.79197335243225,1018.9770460128784,940.2244091033936,2.345253341587369,-3753.2944696836107,684.8343535122265,1.7126781340595292,4779.100281436134,36.24388961595741,1000.0,1
19.908623456954956,1017.6562070846558,940.3727054595947,2.4027295570950384,-3761.4527060996666,686.7124496071903,1.7734149156867667,4785.835927972974,36.057072938482804,1000.0,1
20.033647060394287,1016.1226987838745,941.6348934173584,2.4536055771275977,-3758.844127505303,685.889447058401,1.8217555617674042,4781.810737105295,36.20233916541534,1000.0,1
20.167046070098877,1015.0070190429688,942.186713218689,2.51905284751814,-3759.8138438965234,693.9410630692073,1.8818611041467743,4781.269724244845,36.5083976357623,1000.0,1
20.291953563690186,1013.3715867996216,943.0180191993713,2.573857008464525,-3764.168158909469,693.6611281790279,1.9359821567853752,4784.042734019986,36.54753685874865,1000.0,1
20.40862202644348,1012.5659704208374,942.6416158676147,2.629486603922183,-3769.345767044744,694.1022858128189,1.9986267818132446,4788.366283347085,36.14560527121607,1000.0,1
20.533650636672974,1011.319637298584,943.3549642562866,2.687445827505622,-3775.2216724622226,687.4184321225816,2.0557273931461664,4793.378893695691,36.19480012940895,1000.0,1
20.625303506851196,1010.4166269302368,943.7528848648071,2.730950727674054,-3770.203082249038,689.5469659254328,2.100426041481806,4787.3735443369305,36.12640339762645,1000.0,1
20.7919442653656,993.8095808029175,949.7016668319702,2.768816606836032,-3782.225081799764,703.8000831125484,2.1622915552485007,4782.360785977783,34.751325624920064,1000.0,1
21.10873317718506,940.0599002838135,972.3681211471558,2.8043039537659595,-3817.396291263402,745.0506666815746,2.1974259693090827,4762.883857453973,34.771547188785014,1000.0,1
21.450283527374268,886.3511681556702,992.3406839370728,2.8382890762455593,-3848.8322294107543,787.9304491962002,2.2379779992416218,4739.593374188922,34.39529110727859,1000.0,1
21.767014026641846,835.1906538009644,1009.3955993652344,2.871365210345534,-3888.959182458058,834.9565149882209,2.2677149071386515,4727.369318086376,34.58661467554682,1000.0,1
22.067105531692505,783.7164998054504,1024.2705345153809,2.8986887787844506,-3924.3663587996307,866.5551777124336,2.3041766126359833,4710.723759387985,34.06303798948755,1000.0,1
22.36709952354431,728.1026244163513,1037.329912185669,2.9216626101840215,-3963.962960713616,906.6500307216352,2.3365622539188213,4693.885031248686,33.523781005596824,1000.0,1
22.667073726654053,678.0712604522705,1042.859435081482,2.938162509812706,-3998.460180447772,937.9675836754351,2.3527537971371015,4677.707624276875,33.54144852649879,1000.0,1
22.967034578323364,627.0999312400818,1058.2890510559082,2.974973291923196,-4037.993066212379,972.4479265123691,2.383412837729664,4665.882700362588,33.893917352131446,1000.0,1
23.26709794998169,573.4673142433167,1066.4888620376587,2.9953851582257847,-4075.7793758385806,1009.4291373379676,2.4069322550208136,4649.596820953434,33.715867795865194,1000.0,1
23.56708073616028,520.6369161605835,1074.5552778244019,3.024475594314308,-4116.466221444775,1040.3312143986295,2.4345192810228666,4637.229430954095,33.80200684869733,1000.0,1
23.858680963516235,464.3385410308838,1080.3313255310059,3.0426915306194813,-4155.585156899359,1073.5993131694352,2.4541991104324965,4619.928602769516,33.718131952153676,1000.0,1
24.158709287643433,411.97168827056885,1086.4112377166748,3.058993580528661,-4199.0689966685795,1111.8900016102318,2.473081015102565,4611.111077123781,33.57031716259802,1000.0,1
24.442047357559204,361.49924993515015,1090.9929275512695,3.078629509263758,-4239.314977950452,1142.4200792632932,2.4880306201495546,4601.101641068995,33.838823731358765,1000.0,1
24.717029333114624,312.1959865093231,1097.1089601516724,3.0986705798006278,-4278.95104248768,1179.9859857303486,2.509679420945678,4591.894994796459,33.74670757290804,1000.0,1
25.000375747680664,260.7300281524658,1098.8839864730835,3.1078748603532738,-4323.447345467282,1209.2144442516508,2.51973040568034,4585.50487980559,33.698194996782455,1000.0,1
25.275312185287476,210.30548214912415,1100.7812023162842,3.1204950495832575,-4365.3912175199985,1236.3416448598412,2.535263958466602,4577.704328694188,33.53127156082048,1000.0,1
25.542137622833252,160.51062941551208,1102.3021936416626,3.1353480031573433,-4411.0601736578155,1265.7034561864507,2.553546497894404,4574.490089628979,33.33477076592479,1000.0,1
25.91711735725403,128.97267937660217,1103.135108947754,-3.0522696503925375,-4434.867618790878,1281.3805986363252,2.6112809459856603,4567.319752521357,35.50245376872892,1000.0,1
26.017081260681152,125.97915530204773,1102.6736497879028,-3.0096555764716295,-4434.17899858545,1282.2386865874162,2.6636057388118672,4563.692144624509,34.946070559417336,1000.0,1
26.175477504730225,122.41575121879578,1101.5576124191284,-2.9403390997331345,-4435.115216494504,1286.1331816390625,2.7174125064031815,4561.2670018777235,35.83471143502629,1000.0,1
26.300420999526978,119.98581141233444,1101.1021137237549,-2.885242158845787,-4433.67451554406,1290.8275641467942,2.765614575072401,4557.61101014938,36.22975851340703,1000.0,1
26.417076587677002,117.78110265731812,1100.2655029296875,-2.8350986368307485,-4430.148448887337,1297.186753628347,2.812477074991405,4552.190811553256,36.41774723199898,1000.0,1
28.03379797935486,97.91409224271774,1080.8945894241333,-2.092845864149732,-4453.14543058468,1310.5839617423544,-2.7304436578325135,4556.851982243211,36.53166260487641,1000.0,1
28.150423765182495,96.88271582126617,1078.9376497268677,-2.040791258938589,-4457.617876220202,1304.9938151611802,-2.6687899550809298,4560.107129535111,35.98167482867475,1000.0,1
28.275402069091797,96.5600460767746,1076.9634246826172,-1.979179083345641,-4460.557244934985,1299.8124472301045,-2.603418208012975,4562.562842404335,35.766267250379066,1000.0,1
28.392136812210083,95.32857686281204,1073.2475519180298,-1.9249342491147041,-4471.2583471091475,1298.1189208680225,-2.529801821709769,4572.1202156948075,34.65635907402016,1000.0,1
28.55052375793457,96.23390436172485,1074.8382806777954,-1.8563869869260003,-4472.711225457708,1298.7178169850656,-2.479797634927245,4574.42691996253,35.71879903398709,1000.0,1
28.650546312332153,94.72383558750153,1071.6849565505981,-1.806141079711642,-4484.228024885333,1293.9604924405653,-2.4157095868365035,4584.343633976712,34.92570278234482,1000.0,1
28.767205238342285,93.9139872789383,1064.0050172805786,-1.774050203997886,-4500.5431589924565,1281.668853859661,-2.351986270198158,4599.610202471358,33.11329742166894,1000.0,1
29.067164182662964,80.89007437229156,1001.8085241317749,-1.7424899355971586,-4534.463399807465,1248.5132879481882,-2.320776975558154,4621.942333274276,33.13340673687823,1000.0,1
29.367090940475464,71.74055278301239,947.0030665397644,-1.7138716744162799,-4568.748060601775,1209.6820149228672,-2.294053627894349,4647.917254091076,33.24197728394883,1000.0,1
29.69214129447937,63.921913504600525,890.6352519989014,-1.6697991185823267,-4607.686363353093,1169.206629855007,-2.2538111103220935,4679.906612846667,33.46142231171773,1000.0,1
29.983872652053833,59.30222198367119,839.3440842628479,-1.626180153509938,-4645.956288123326,1135.090690369511,-2.206689749639126,4714.543848768185,33.2607498250464,1000.0,1
30.2837815284729,57.31964111328125,784.0269207954407,-1.5958068136643286,-4678.703074896582,1092.8287892105734,-2.1632935932646937,4746.079409417643,32.51459740057166,1000.0,1
30.583871126174927,55.47545850276947,736.1916899681091,-1.5722724059706061,-4710.651128654097,1051.581295610594,-2.142377812379722,4776.55035021624,32.664633664832884,1000.0,1
30.883888959884644,55.064186453819275,684.4216585159302,-1.5559849227062412,-4737.381349442188,1006.4239384698781,-2.1186654043409727,4803.250949390955,32.239216812058544,1000.0,1
