time_stamp[s],x_true_pose[mm],y_true_pose[mm],theta_true[rad],x_pose[mm],y_pose[mm],theta[rad],p_err[mm],a_err[mm],num_particles,valid_pose
6.208373785018921,214.35165405273438,14.689899981021881,0.05125492990057785,126.73922575634883,169.483864547866,1.5898538504110133,177.86823510202908,88.15522450863239,1000.0,1
6.541824102401733,263.61826062202454,17.389681190252304,0.05143338916596296,136.14192129921867,233.0870024842147,1.595777966889374,250.55049690737792,88.48442641746479,1000.0,1
6.866878271102905,321.5300440788269,20.304854959249496,0.05051310600302891,134.5750260078011,278.80061674997165,1.5925271025334096,319.0176133784832,88.35089395129158,1000.0,1
7.183459520339966,373.1708526611328,24.54948239028454,0.05167007624341461,136.53032331478497,329.96468495527483,1.593999899331371,386.3640590002307,88.36898948009882,1000.0,1
7.525121688842773,430.76232075691223,24.891449138522148,0.05273072876947049,149.07147672106052,366.7205084202492,1.5998335654515488,442.941121801827,88.64246301460057,1000.0,1
7.825126647949219,480.3818166255951,27.363093569874763,0.05192318249068521,148.7865540667252,419.2534541286934,1.6042320734668927,513.3551137861654,88.94074795357012,1000.0,1
8.125106811523438,531.4783453941345,30.17108328640461,0.05249586350815664,160.38289809864813,455.2573470108848,1.5914983452227893,564.2784442194079,88.1783468624081,1000.0,1
8.425171375274658,582.6510190963745,32.607462257146835,0.053563354128796314,145.27988205718256,513.3885853675145,1.600587386424872,649.9569215372832,88.63794785587551,1000.0,1
8.716817617416382,633.677065372467,35.84698587656021,0.05433589212147467,104.94746969719787,572.275413218218,1.6161553958415475,753.2001347604618,89.48566592437695,1000.0,1
9.016845703125,682.6022267341614,35.15799716114998,0.0463600083753511,101.981624873699,616.0418417891589,1.6063257334003247,821.3076915837463,89.3794522289965,1000.0,1
9.31684160232544,736.2686395645142,37.7446785569191,0.04227801714965681,89.69978115409678,663.3678649069168,1.5986373852909654,899.6975380453557,89.17282320014453,1000.0,1
9.616911172866821,787.6855134963989,39.50135409832001,0.040266540160738475,97.45902782033514,710.6341401490939,1.5899409556193378,962.7210489238321,88.78980362518064,1000.0,1
9.975182056427002,804.8896193504333,40.20917788147926,0.12755431194828412,85.43614207130786,737.1778637676674,1.6575592317976866,1001.6879030291547,87.66282454162256,1000.0,1
10.116822957992554,805.9633374214172,40.794070810079575,0.17763419805341474,86.47988773826951,741.8732907220158,1.7127483656703777,1004.5737936858056,87.95556287519041,1000.0,1
10.275135040283203,808.4620833396912,41.359517723321915,0.2345880972637492,89.69341281474173,749.080704395952,1.7724826437426895,1008.710900007291,88.11486684942909,1000.0,1
10.416788101196289,809.9896311759949,41.9149324297905,0.28807214413190496,82.90487497796931,750.1741528965526,1.8265509063925585,1015.02875135226,88.1483399480462,1000.0,1
10.575145721435547,812.3740553855896,42.37750917673111,0.3455189145738116,82.31156444495045,751.3133851054928,1.8850507569575443,1017.6351590119768,88.20867699458776,1000.0,1
10.71679162979126,813.7264847755432,42.98701137304306,0.40045986392469113,80.96434493385495,757.3559092458268,1.9422223953020528,1023.3588206652374,88.33648605932898,1000.0,1
10.875109195709229,815.7243132591248,43.871358036994934,0.45862493852747954,82.38830191486485,758.2287893890144,1.99564147261315,1023.7618108047221,88.06456044493454,1000.0,1
11.01677393913269,816.7369365692139,44.82490196824074,0.5137889889930923,95.91556844723588,760.2207768957173,2.052896725667139,1015.5661980415111,88.18437752735535,1000.0,1
11.175156116485596,818.2365298271179,45.778024941682816,0.5735720762388502,94.8634555886043,766.1996813227057,2.109494021995836,1020.9191777589716,88.00184515339664,1000.0,1
11.316785335540771,819.0029859542847,47.02579602599144,0.6297498003741236,88.24486824618653,766.2863856063528,2.16526985238538,1025.3502924950924,87.97881833795364,1000.0,1
11.450148582458496,819.8435306549072,47.89086803793907,0.6791563083977542,86.6926713279045,770.276308274568,2.2110867960639387,1029.2477383010325,87.77315145069038,1000.0,1
11.591870784759521,821.035623550415,48.75531792640686,0.7346502082333296,89.9419221608959,775.2340980389117,2.2727981249519313,1030.6645517166003,88.12938389481592,1000.0,1
11.750128030776978,821.8498229980469,50.08639395236969,0.7985176270368698,81.55409983346435,771.4110766039662,2.332541599609055,1033.6087536095072,87.89309930027855,1000.0,1
11.875110149383545,822.9328393936157,51.05818808078766,0.8506454692314805,78.66662486473085,777.8148843745919,2.3905977544778114,1040.243958740949,88.23276659614103,1000.0,1
12.03352427482605,823.4748244285583,52.25231498479843,0.9144412767827342,71.44158659428345,782.6752679945097,2.4487232397441603,1048.3661960836632,87.90788106073701,1000.0,1
12.15019941329956,824.0174055099487,53.383633494377136,0.9622091052433006,66.60080557373857,779.0327681653353,2.4974918115319262,1048.9263904143318,87.96521942976142,1000.0,1
12.275175333023071,823.8924145698547,54.17225509881973,1.0128691982461342,67.21788148866504,783.4089908724226,2.5478812852320263,1050.8770460027072,87.94971408586002,1000.0,1
12.391824960708618,824.7349262237549,55.143699049949646,1.0598613163695403,62.873998160064644,790.2764803597406,2.607494125628441,1058.7031122398462,88.67282820651016,1000.0,1
12.533530473709106,825.1734375953674,56.23131990432739,1.1199590298447257,53.95717557123917,795.0568397473776,2.6646205547581463,1068.0064005341083,88.50258615378087,1000.0,1
12.66692066192627,825.5692720413208,57.49721825122833,1.177134870918319,52.664466766668006,799.8425584335293,2.7224001354535026,1071.661533370973,88.53717788603271,1000.0,1
12.908457517623901,841.7205810546875,96.35299444198608,1.2062000168486395,14.892188752874292,817.0981212559927,2.7773147491665333,1096.8676894423227,90.0182432926414,1000.0,1
13.233581781387329,860.9069585800171,145.0972557067871,1.2276023172001584,-32.779118139810656,832.2259336149839,2.805296683868145,1127.3068010647075,90.39522857164101,1000.0,1
13.5502028465271,877.8147101402283,195.13320922851562,1.2466486694264052,-92.60720337235391,852.5487955425508,2.8252002398802913,1172.1407523646842,90.4443427307557,1000.0,1
13.866847038269043,895.7427144050598,251.0855793952942,1.267193096022983,-142.54110081966007,874.7681929652164,2.8497396723444126,1211.203237870098,90.67323970609594,1000.0,1
14.208451271057129,913.0544066429138,304.27053570747375,1.2825983412552424,-200.68897497419687,889.5135032903737,2.869136988350688,1258.1469116129308,90.90196851296459,1000.0,1
14.525145053863525,927.6794195175171,357.06111788749695,1.30359335415002,-252.09605415128283,904.0004743597138,2.8922934410720567,1300.3894908559835,91.02580989269974,1000.0,1
14.841915369033813,943.1482553482056,411.96298599243164,1.3190441412460439,-301.77695768123726,916.3426939040095,2.902569782311656,1343.2191465987119,90.72933598380766,1000.0,1
15.141901969909668,952.6515603065491,457.0530652999878,1.3468354270394338,-348.96138770768476,928.8759390173087,2.9326055412662604,1384.490191587205,90.85793482317563,1000.0,1
15.466906785964966,966.3437008857727,514.1662359237671,1.3609679201439417,-406.55394001371315,940.1379426301452,2.945483042593324,1437.46298293268,90.78602909100444,1000.0,1
15.758512496948242,977.6189923286438,566.0400390625,1.3769561456468944,-456.91252938208504,950.2384448970803,2.956700624238379,1485.0889205120116,90.5126913323869,1000.0,1
16.05847692489624,987.1083498001099,615.2752041816711,1.3882038236366714,-507.8245941766467,956.3027942968283,2.967129988806686,1533.3376419454275,90.46580542701777,1000.0,1
16.358511447906494,998.4735250473022,667.1175956726074,1.4084845743476369,-566.1402712204653,960.9655469637083,2.987000921872781,1591.9682628587207,90.44232460559668,1000.0,1
16.666850090026855,1005.7660341262817,723.1580018997192,1.4189341360143592,-624.515621396238,964.8987272316259,3.0037133313379685,1648.1070519287405,90.80115935218154,1000.0,1
16.9584321975708,1014.8859024047852,774.5287418365479,1.429745326404884,-685.4309939067358,971.5078978580536,3.0102224026072104,1711.688737998059,90.5546660835695,1000.0,1
17.258443117141724,1022.9613780975342,827.993631362915,1.4435852617193548,-744.2057749327834,973.8914742855701,3.0249287110509515,1773.179609435762,90.60430560736023,1000.0,1
17.55843949317932,1028.7220478057861,878.2409429550171,1.455698337357505,-800.9634968978078,975.8596326403373,3.0335882478894662,1832.2878051968707,90.40643240975645,1000.0,1
17.91695237159729,1032.591700553894,907.3308706283569,1.5460751008236964,-832.6642817906676,974.27292058379,3.086984500639884,1866.4568352159692,88.2876052215043,1000.0,1
18.01698350906372,1032.544493675232,909.3616008758545,1.5856026777794299,-830.5749821897816,971.1604192726455,3.1367931979113335,1864.144113340694,88.87667002426103,1000.0,1
18.133646488189697,1033.170223236084,912.3659133911133,1.6347788623843285,-836.6052334925606,965.9361446984007,-3.0966713849309033,1870.542709554403,88.90786985270765,1000.0,1
18.258556127548218,1032.8176021575928,914.1655564308167,1.6906181867337144,-838.3955008415774,965.9953298255858,-3.050087290349387,1871.9307685504655,88.37758424858485,1000.0,1
18.375280141830444,1032.668948173523,916.3398742675781,1.7406399499771088,-837.8712784067823,966.2281161318499,-2.9920712978676884,1871.205380478425,88.8356198443998,1000.0,1
18.533647775650024,1032.6189994812012,919.284462928772,1.8125980854328367,-836.8536957126607,965.0906354924703,-2.9330911977078378,1870.0337867322978,88.09203319557425,1000.0,1
18.633628606796265,1032.1087837219238,921.0274815559387,1.8486562417888608,-836.6971768097337,965.3872043005867,-2.8828600022488233,1869.3323682857026,88.90408851904944,1000.0,1
18.77528738975525,1030.8187007904053,923.5732555389404,1.9067807346004206,-846.2572030024555,962.781595350974,-2.826257541638767,1877.4853508111858,88.8168824976203,1000.0,1
18.916964292526245,1029.4692516326904,925.5566596984863,1.9683830799609745,-847.8561928059274,961.5142496786559,-2.7742591713646663,1877.6697719817073,88.26661525861772,1000.0,1
19.033676862716675,1028.356671333313,927.3380637168884,2.0150329481622156,-848.0675004259765,960.8913132708306,-2.7200874791095284,1876.7241387370082,88.69758403114604,1000.0,1
19.150256395339966,1026.788592338562,929.9988746643066,2.071554782477257,-841.7734686603592,957.9467870118372,-2.6695868290026348,1868.7710564991962,88.35259558834834,1000.0,1
19.25028133392334,1023.5426425933838,936.5315437316895,2.111158182790299,-842.5184096954947,956.9028583687863,-2.6290313620670416,1866.1722432105564,88.40714498763577,1000.0,1
19.41704535484314,1022.9207277297974,935.6441497802734,2.1860584461155357,-842.3524378525124,953.4349478301099,-2.5808210776758327,1865.358007122681,86.87792183942288,1000.0,1
19.517009973526,1021.8279361724854,937.9318356513977,2.2229196303936534,-839.9194159019889,952.170536763763,-2.5302758839755577,1861.8018002906979,87.66195782612978,1000.0,1
19.650323152542114,1020.7608938217163,938.6714696884155,2.28649025619779,-841.9732329685188,949.0254725211016,-2.4748019962647794,1862.7629029169652,87.19804890555756,1000.0,1
19.79197335243225,1018.9770460128784,940.2244091033936,2.345253341587369,-850.8191911836891,946.8146771341746,-2.417839306481894,1869.8078511620279,87.09489383584013,1000.0,1
19.916953563690186,1017.6020860671997,940.4728412628174,2.4064800756916878,-851.9767286616925,945.7126690013125,-2.363090195814331,1869.5861574898918,86.72375335163893,1000.0,1
20.033647060394287,1016.1226987838745,941.6348934173584,2.4536055771275977,-852.6775452480626,947.5223745901653,-2.308774842762973,1868.8095179895645,87.13570150452946,1000.0,1
20.167046070098877,1015.0070190429688,942.186713218689,2.51905284751814,-851.5097973687742,946.2229521402393,-2.2523125178684196,1866.5211804778592,86.62090204845423,1000.0,1
20.291953563690186,1013.3715867996216,943.0180191993713,2.573857008464525,-855.5368444625849,945.6868617532334,-2.190041214227882,1868.910336844317,87.04873780985112,1000.0,1
20.40862202644348,1012.5659704208374,942.6416158676147,2.629486603922183,-849.0379321536958,949.8377272042807,-2.133498499548836,1861.6178109641896,87.10105568742893,1000.0,1
20.533650636672974,1011.319637298584,943.3549642562866,2.687445827505622,-847.1063357702624,950.7607388397379,-2.077459853627032,1858.4407289106825,86.99101469319012,1000.0,1
20.63367009162903,1010.2262496948242,943.7150955200195,2.733982213695602,-847.8192289459001,949.4317728794545,-2.0259259050400313,1858.0542729148874,87.2773539263927,1000.0,1
20.7919442653656,993.8095808029175,949.7016668319702,2.768816606836032,-851.507942518432,933.3572545825848,-1.9736223658893417,1845.3899050576324,88.27826226447836,1000.0,1
21.10873317718506,940.0599002838135,972.3681211471558,2.8043039537659595,-870.2943217014636,883.2824091812,-1.9416109126869696,1812.5448058286445,88.07910822385345,1000.0,1
21.450283527374268,886.3511681556702,992.3406839370728,2.8382890762455593,-885.5652084979633,836.1978034556078,-1.9050218466396331,1778.7827987076978,88.228303200375,1000.0,1
21.767014026641846,835.1906538009644,1009.3955993652344,2.871365210345534,-900.5827536199105,784.4798183074638,-1.8821904700972365,1750.2846712687342,87.64132183019105,1000.0,1
22.067105531692505,783.7164998054504,1024.2705345153809,2.8986887787844506,-918.0242600236508,734.4293859874351,-1.8544714656242949,1726.2472317265929,87.66397864600808,1000.0,1
22.36709952354431,728.1026244163513,1037.329912185669,2.9216626101840215,-926.2806932177251,685.4339361155212,-1.8363259993227528,1691.394377323129,87.38733370394274,1000.0,1
22.667073726654053,678.0712604522705,1042.859435081482,2.938162509812706,-941.4565050992459,632.7327738003253,-1.8139252520761027,1670.6507898678037,87.72542736800199,1000.0,1
22.967034578323364,627.0999312400818,1058.2890510559082,2.974973291923196,-950.7299727679172,585.0620359693334,-1.7865375320672356,1647.2677419866027,87.1855256794893,1000.0,1
23.26709794998169,573.4673142433167,1066.4888620376587,2.9953851582257847,-963.0632088637573,531.9963018733323,-1.7679589764791714,1626.8399876173175,87.08048471301092,1000.0,1
23.56708073616028,520.6369161605835,1074.5552778244019,3.024475594314308,-969.7643192976273,482.2123605034709,-1.7435466980146903,1603.797360752172,86.81244602525636,1000.0,1
23.858680963516235,464.3385410308838,1080.3313255310059,3.0426915306194813,-974.6576577948337,432.3160861660877,-1.7212743481232984,1578.1742016279557,87.04486140370624,1000.0,1
24.158709287643433,411.97168827056885,1086.4112377166748,3.058993580528661,-982.7046651664622,378.05299547830305,-1.700291791238598,1564.254944113475,87.31303469938511,1000.0,1
24.442047357559204,361.49924993515015,1090.9929275512695,3.078629509263758,-988.559203756238,331.5150074734478,-1.6871680812979752,1549.0205096993766,86.93991204719593,1000.0,1
24.717029333114624,312.1959865093231,1097.1089601516724,3.0986705798006278,-992.3010080991173,281.1728315403884,-1.661797251912602,1538.6566137106822,87.2452847350377,1000.0,1
25.000375747680664,260.7300281524658,1098.8839864730835,3.1078748603532738,-997.4346519811065,231.79644875420612,-1.6518493668127372,1528.0115053241582,87.2878901372201,1000.0,1
25.283690214157104,208.75868201255798,1100.8976697921753,3.12074703956551,-1002.6249009786026,182.38746634224304,-1.6446442441759024,1520.2339224547443,86.9631917131877,1000.0,1
25.542137622833252,160.51062941551208,1102.3021936416626,3.1353480031573433,-1004.1310671275883,133.5784595405625,-1.6254742669046855,1514.8649954162813,87.22497691355395,1000.0,1
25.91711735725403,128.97267937660217,1103.135108947754,-3.0522696503925375,-1000.6010150008717,106.34335374307473,-1.5601836962142137,1506.496111602549,85.49022784516829,1000.0,1
26.017081260681152,125.97915530204773,1102.6736497879028,-3.0096555764716295,-1000.002031063756,109.40283154074744,-1.501103824012463,1501.472793769876,86.43364859297435,1000.0,1
26.175477504730225,122.41575121879578,1101.5576124191284,-2.9403390997331345,-998.2645892119067,104.7354222785973,-1.444921294143516,1499.8596281600621,85.68112886900018,1000.0,1
26.300420999526978,119.98581141233444,1101.1021137237549,-2.885242158845787,-999.7782475654952,105.79340198881012,-1.3918207230475417,1498.1692092130247,85.5667453056071,1000.0,1
26.417076587677002,117.78110265731812,1100.2655029296875,-2.8350986368307485,-996.8562238425912,102.66765004691915,-1.3352545857335967,1495.8669211207175,85.93473405567059,1000.0,1
26.55875587463379,115.554578602314,1099.1822481155396,-2.7681210422738283,-998.0623505272072,99.10105156027959,-1.2730524237473233,1496.764866152084,85.66112192402322,1000.0,1
26.675450563430786,113.29368501901627,1098.2266664505005,-2.7171126920114292,-993.7599600089698,98.96423241759692,-1.2117658494833699,1491.3393929750239,86.25002078020235,1000.0,1
26.800392627716064,111.29675805568695,1097.5894927978516,-2.656508565536432,-994.3681523853681,100.8183090364495,-1.1556791278599816,1488.6395423196757,85.99119254785323,1000.0,1
26.892051935195923,109.89096015691757,1096.824288368225,-2.617527132201483,-988.9431420739676,102.91894464649779,-1.1041246698704956,1481.6491543223583,86.71157379627213,1000.0,1
27.058782815933228,107.89743065834045,1093.8602685928345,-2.5435928170506776,-986.5561754613408,108.58808196386796,-1.041341811702522,1472.6133157394033,86.07264237573418,1000.0,1
27.15883731842041,106.50219023227692,1092.670202255249,-2.4991764583889085,-983.2322940211235,107.46441441907074,-0.9914733004038543,1469.0649034528492,86.38502771108959,1000.0,1
27.275493144989014,105.17263412475586,1091.3896560668945,-2.4439667118498547,-980.9909281919699,111.54019008186226,-0.9378957577918985,1462.824753719909,86.2915093147622,1000.0,1
27.392085790634155,103.46253961324692,1089.8921489715576,-2.3911874419268364,-979.4099449626326,116.08490106544305,-0.8770646082730332,1456.3355979739076,86.75284803275174,1000.0,1
27.533778429031372,102.33152657747269,1087.993860244751,-2.3247661774124277,-973.337870843887,118.53125256357025,-0.8235363779262964,1448.0754124840412,86.01413158982618,1000.0,1
27.658740520477295,100.8419394493103,1086.3816738128662,-2.265733091620519,-972.312511860418,115.16142761060703,-0.7636855218872971,1447.3870398062368,86.06098637359584,1000.0,1
27.775453329086304,100.19540786743164,1084.761619567871,-2.213226141446937,-967.7352198671799,116.12442010422961,-0.7076921175171572,1441.7814847744467,86.26074548452428,1000.0,1
27.892102479934692,98.75615686178207,1082.939863204956,-2.159859872303543,-965.9393828592101,118.60715035816291,-0.6480361090244727,1436.493708085152,86.62112100347598,1000.0,1
28.03379797935486,97.91409224271774,1080.8945894241333,-2.092845864149732,-962.6840272810473,112.03297392514504,-0.5897455567095384,1436.5100769311214,86.12130380113958,1000.0,1
28.150423765182495,96.88271582126617,1078.9376497268677,-2.040791258938589,-958.293346006463,113.0840318805632,-0.5351964596359109,1430.4788472959224,86.26422765688966,1000.0,1
28.275402069091797,96.5600460767746,1076.9634246826172,-1.979179083345641,-953.2790117209465,111.27227229334991,-0.4759360763952686,1426.4366263807578,86.12947988081143,1000.0,1
28.392136812210083,95.32857686281204,1073.2475519180298,-1.9249342491147041,-948.163555936797,109.10762573714794,-0.40737826981319225,1420.7187013869961,86.94955278881915,1000.0,1
28.55052375793457,96.23390436172485,1074.8382806777954,-1.8563869869260003,-947.1113901298714,109.72715886150652,-0.3474339142096045,1421.270164673575,86.4566425499467,1000.0,1
28.650546312332153,94.72383558750153,1071.6849565505981,-1.806141079711642,-944.4486843783982,108.53470306908311,-0.2886439853321151,1416.8761191557237,86.94617893131246,1000.0,1
28.767205238342285,93.9139872789383,1064.0050172805786,-1.774050203997886,-928.0494091616163,105.7703152258415,-0.2342732680366755,1400.9364467691762,88.222719822163,1000.0,1
