time_stamp[s],x_true_pose[mm],y_true_pose[mm],theta_true[rad],x_pose[mm],y_pose[mm],theta[rad],p_err[mm],a_err[mm],num_particles,valid_pose
5.2583537101745605,47.06243798136711,7.175207138061523,0.015408899986168519,215.2072080226713,97.00296676614623,1.0127259889369846,190.63496555470624,57.14206003315507,1000.0,1
5.416605472564697,73.72267544269562,6.672307848930359,0.019477249873929802,289.0164416070776,105.96687978482217,1.0116530638401637,237.08820671888253,56.84748667522232,1000.0,1
5.591619491577148,101.73068940639496,7.197536528110504,0.018643810995422092,345.607768503213,129.43623277676676,1.0042513118137442,272.79722976849837,56.47115005332669,1000.0,1
5.774968385696411,130.62147796154022,7.486138492822647,0.019274972992138626,398.7904696620081,134.351138243199,1.0033946996527958,296.6636753485478,56.38590687322386,1000.0,1
5.9583423137664795,159.07281637191772,7.459484040737152,0.020013831657048637,439.41982006869415,134.8632590494226,1.0086869200146926,307.93857239427496,56.64679528105773,1000.0,1
6.133312702178955,187.02995777130127,7.805269211530685,0.020575350572566382,479.9605570973184,154.78760145355128,1.0086105809723953,327.7379166541511,56.61024871214609,1000.0,1
6.291708707809448,212.20135688781738,8.33236426115036,0.02146887973378258,513.5711647070444,162.20479323042642,1.0061874879843096,338.3792036486621,56.420220260751485,1000.0,1
6.47502589225769,243.16748976707458,9.051498025655746,0.021369217377673447,556.4806951039479,159.06084771704053,0.9971102986539373,347.372954665872,55.90584585466135,1000.0,1
6.658323049545288,267.5182819366455,10.092634707689285,0.019743140122624805,585.5278974871612,187.4896802516801,0.989389234221235,364.142592057457,55.556628813195445,1000.0,1
6.8332836627960205,301.10669136047363,11.074766516685486,0.021782511539907595,604.9042586287553,208.95586905716763,0.9917432007413777,362.56019172099263,55.5746537848448,1000.0,1
7.016656160354614,330.0151526927948,11.574942618608475,0.021250411455690697,634.2945110547358,234.4454021116376,0.9848822940042123,377.16994795421925,55.212039874276535,1000.0,1
7.149988889694214,351.92859172821045,10.97337156534195,0.022345190298652118,667.9647235997757,255.33696542798117,0.9779809721513713,399.49017841970317,54.753897051845435,1000.0,1
7.333293437957764,383.30477476119995,10.156027972698212,0.027489281893614402,695.432218104326,283.97007495281696,0.9780109388535699,415.20798789467796,54.46087927958729,1000.0,1
7.47494912147522,407.9985320568085,10.901011526584625,0.025818968291841434,699.3094303544443,308.6290062567728,0.9871002412904321,416.53811147725065,55.07735986778235,1000.0,1
7.63334059715271,433.77140164375305,11.825162917375565,0.024998896700448216,721.187334966305,319.0547784036527,0.9822024482082917,420.711249385513,54.84372363633274,1000.0,1
7.774945020675659,457.36557245254517,12.783445417881012,0.02496085766880601,738.7577842225716,349.7123624086799,0.9828500179201556,438.97912473080083,54.883006123732905,1000.0,1
7.933342933654785,484.1163754463196,14.152046293020248,0.02407559099960312,766.6781030124323,370.5470294396438,0.9804134003324505,454.8170114422153,54.79412026355899,1000.0,1
8.066731452941895,507.1372389793396,14.876503497362137,0.023823947696421825,779.5295016652958,389.58638000704036,0.9835943117471749,463.25482871209584,54.9907911618427,1000.0,1
8.233381032943726,535.3164076805115,15.23004099726677,0.023630627507203884,790.123665057449,421.02627725133675,0.9863673484027311,479.1631494281732,55.160750889578004,1000.0,1
8.391715049743652,563.5677576065063,15.353132039308548,0.025753729908579763,812.2075892699103,438.4377100663999,0.9952094375884017,490.7365138788511,55.54572047492227,1000.0,1
8.524971961975098,585.3658318519592,16.11129567027092,0.027026408595763645,835.3020898082581,456.87977611610825,0.9908053449617582,506.7000951210983,55.22046543737902,1000.0,1
8.691668272018433,614.933967590332,17.064686864614487,0.027078211078363418,837.0955874507035,485.00990108644527,1.0013559870989182,518.004352155558,55.82200463936991,1000.0,1
8.833332300186157,637.8483176231384,17.90587604045868,0.027465092198481412,845.8850999525204,507.20962522521165,1.0000100937644647,531.693014594153,55.722723976274885,1000.0,1
8.991633653640747,663.6685729026794,17.864689230918884,0.02804152292654836,873.7336033255017,515.9846739374399,0.9868905716704166,540.6022902009997,54.9380036831574,1000.0,1
9.124964475631714,688.2351040840149,17.49487966299057,0.032987936339223,902.9918324191063,530.1562763504242,0.9796725288932054,555.8256561357189,54.241031683405154,1000.0,1
9.291675567626953,717.9695963859558,19.168484956026077,0.031479976533632104,925.9005524927256,542.3124463300978,0.9765030707787641,562.9519400709369,54.1458348426399,1000.0,1
9.424962520599365,741.131603717804,19.526058807969093,0.03239412995359093,939.09049649321,569.9556285481342,0.9822712719012946,584.944813186003,54.42395128955243,1000.0,1
9.583297729492188,768.7831521034241,20.244574174284935,0.03225655816116801,945.8990980074299,598.7724961693614,0.986021194389022,605.0327386360278,54.64668830468629,1000.0,1
9.983319282531738,795.8868145942688,20.78840881586075,0.12125827559086379,951.8641673823081,621.0033193852936,1.044361751820318,620.1506860857583,52.889933241802645,1000.0,1
10.12500262260437,799.2260456085205,22.500507533550262,0.17449930092464325,949.3870687582794,618.7925928046833,1.0975802868629532,614.9085979480028,52.88864464304004,1000.0,1
10.283291578292847,797.2650527954102,22.189009934663773,0.22740591311357553,941.0492845591259,629.1617721443238,1.1534855627347698,623.7706624780508,53.06045541624848,1000.0,1
10.408325910568237,798.9766597747803,22.256353870034218,0.27539185575368874,932.1760955721354,642.7911159709685,1.2214491246180208,634.6695838563534,54.20508868359961,1000.0,1
10.566632747650146,800.7989525794983,22.49845117330551,0.33430867860904634,921.3709242432527,646.7805626530769,1.2760405947359044,635.8189640648719,53.95726422683699,1000.0,1
10.699981212615967,801.9951581954956,22.973012179136276,0.3880066411549619,924.6138745387752,645.1846201651749,1.3333997279006846,634.1787088118344,54.167033851375244,1000.0,1
10.866698503494263,803.4780025482178,23.886684328317642,0.45142733633998694,907.6726130592211,659.5128072137057,1.3996286421019817,644.1095286935679,54.32793294895601,1000.0,1
11.000016212463379,804.8339486122131,24.38177727162838,0.5043519275618457,904.2027726487435,670.0997379182905,1.4649988898607973,653.3191011229408,55.04101654179304,1000.0,1
11.166682004928589,805.9467673301697,25.502800941467285,0.5694198666344634,896.117118749889,672.1065379464545,1.5273361153360283,652.8606933978874,54.88455817760379,1000.0,1
11.28335976600647,806.8208694458008,26.289764791727066,0.6136425885277244,888.7174030750933,676.8572414542857,1.578964911828693,655.7019779683318,55.30889499490868,1000.0,1
11.441619396209717,807.5008988380432,27.279598638415337,0.6788080130246016,879.6346389046616,685.6149978377518,1.6423684734747452,662.2754519797244,55.20794768947551,1000.0,1
11.558401107788086,808.3277344703674,27.93901599943638,0.7217226621396329,860.006612961303,697.7531604404768,1.707838526880918,671.8048039239998,56.50027716056918,1000.0,1
11.69999647140503,809.053361415863,28.859717771410942,0.7805114476814459,849.3151536250726,701.8785597633878,1.7688510527174963,674.2220506540253,56.627688094192415,1000.0,1
11.858365058898926,810.0146651268005,30.017632991075516,0.8434779726249885,836.7586964279014,706.9482869059034,1.82774034078524,677.4587466553154,56.394079629134026,1000.0,1
11.98333191871643,811.0719919204712,31.093763187527657,0.8947117714355819,834.1929847307028,703.7116902719887,1.8754836496957439,673.0151975579215,56.19408928942586,1000.0,1
12.141648054122925,811.560869216919,32.311610877513885,0.9627287434216154,820.596324659662,710.0067654648632,1.9370011896938786,677.7553850809517,55.82169926728693,1000.0,1
12.258262395858765,811.9112849235535,33.296942710876465,1.0099009387131854,814.972385744427,717.1875841585195,1.9911402029696796,683.8974921710886,56.22086853441921,1000.0,1
12.38322639465332,811.8228912353516,34.03801843523979,1.0639846864899811,810.3377093034553,721.6403976337793,2.0502842252243907,687.6039831508126,56.510800905181526,1000.0,1
12.516696214675903,812.4471306800842,34.99104082584381,1.116840885010516,810.958720345843,722.5400193427301,2.099334571108582,687.5505895750049,56.2927416116703,1000.0,1
12.6416015625,813.2089376449585,35.961464047431946,1.1710340169638915,801.4341226128441,734.7212314557297,2.1584375533250975,698.8589691901642,56.57405530978942,1000.0,1
12.78325891494751,814.1143918037415,41.099950671195984,1.2138794804607456,789.6439641818552,740.7878479215873,2.2065646443046303,700.115672861758,56.876670273507216,1000.0,1
12.958302736282349,828.6973834037781,77.9479369521141,1.224054261465992,765.444553743401,768.8583576633841,2.23800556500465,693.7997765259577,58.09513032455336,1000.0,1
13.141660690307617,838.7234210968018,106.59770667552948,1.2376934617531867,742.3013375120626,794.1769912664147,2.2416553346884753,694.3072020376397,57.522778111241465,1000.0,1
13.31665587425232,849.3204116821289,134.64222848415375,1.2477715688098647,722.2116122657695,818.0911695265681,2.2524709311571987,695.1683982324469,57.56503314198725,1000.0,1
13.499982833862305,860.2120876312256,162.85113990306854,1.2585464788788414,707.0688687218965,841.6037452508099,2.2547797465017667,695.8145907957503,57.079961645320665,1000.0,1
13.658313751220703,868.0189251899719,188.6948198080063,1.2679306012434697,676.7945672749192,873.6682821015095,2.2718680180811504,711.1648185240699,57.52137688006517,1000.0,1
13.833337545394897,876.7778873443604,217.92151033878326,1.2788955156590145,627.0494917905213,917.1504474713822,2.309940447105885,742.4859446949005,59.074523060260965,1000.0,1
14.016645908355713,887.2914910316467,251.91935896873474,1.2914228850870273,587.6657060412898,950.6408621588166,2.331920231801633,760.2547928499334,59.616106561307234,1000.0,1
14.1582932472229,892.985463142395,272.9046046733856,1.2947058278620973,554.7948748615768,973.8877892539754,2.351100535758985,778.2996203689626,60.526958262447074,1000.0,1
14.333316564559937,900.529682636261,301.6311526298523,1.30366495057313,510.1253761070714,1009.4850061405076,2.3795406008333826,808.3765214839071,61.643134040805506,1000.0,1
14.491659879684448,904.8441052436829,327.85525918006897,1.3100836777921094,486.7480912102012,1028.3735591985696,2.385671976353575,815.8003221447607,61.6266700012291,1000.0,1
14.675005197525024,915.0654077529907,358.94301533699036,1.3269670905562092,445.94017789044534,1057.0571240495885,2.4136342922040837,841.0955891438092,62.26144438971478,1000.0,1
14.816588640213013,922.803521156311,382.55223631858826,1.3332013112754595,421.3430680504078,1076.7765858486548,2.423764636900357,856.3936206614467,62.48467585005794,1000.0,1
14.974997520446777,928.652822971344,411.047488451004,1.3394914841114942,401.6741768483347,1092.929782012461,2.425914657156817,861.7830096621033,62.2474625807081,1000.0,1
15.116611957550049,934.0499639511108,435.89773774147034,1.3441601702168553,347.55017366440666,1121.3780177069902,2.457081306488781,902.1447878405969,63.765684039285304,1000.0,1
15.274972200393677,940.1859641075134,462.4994993209839,1.3500499259315395,317.1787975264617,1140.8660507834156,2.4639063187903196,921.0424027993404,63.81927029447387,1000.0,1
15.416619539260864,946.0194110870361,488.21815848350525,1.3551961258640222,282.40530331002566,1163.8434234138685,2.481716613953508,947.0233274069343,64.54486950254507,1000.0,1
15.575051546096802,951.3580799102783,514.0171647071838,1.3880679203822688,251.90314608978454,1182.5722297717473,2.512716363954485,967.5758778872663,64.4376092526449,1000.0,1
15.716633558273315,955.7371735572815,535.9054803848267,1.3957244555006179,213.2722234572276,1203.5271612161453,2.5437028248568403,998.485308276046,65.7743155364219,1000.0,1
15.874968767166138,960.4666233062744,563.1885528564453,1.402136951180902,170.4511624499754,1225.7696116284696,2.567204821454179,1031.0858780118401,66.75347181295407,1000.0,1
16.008241176605225,964.2242193222046,585.2096080780029,1.4081569495156998,153.611991186839,1236.954650330276,2.5677175804020416,1040.1268117412412,66.43793023931447,1000.0,1
16.174928665161133,968.8499569892883,614.1725778579712,1.4135831799713137,129.85674821338745,1253.0729172700492,2.5759820556695545,1054.5630602638,66.6005496882612,1000.0,1
16.308295011520386,972.4504351615906,637.5463008880615,1.4184189088537338,96.85782174832771,1271.14781449156,2.589613276247459,1080.792904632757,67.10449424115481,1000.0,1
16.474929332733154,979.6091914176941,665.878415107727,1.4337460899366403,54.75845842162026,1290.1577050933827,2.6214404765297745,1115.828620455834,68.04987570316578,1000.0,1
16.608318567276,981.1630249023438,689.8701190948486,1.437614614267433,18.195762584607216,1307.520843046795,2.636039169606265,1144.027257146472,68.66466908575742,1000.0,1
16.766592979431152,984.8250150680542,719.3716168403625,1.4422768544635962,-15.469352985313321,1324.3530813224836,2.6514250089836096,1169.0130004094128,69.27908606002907,1000.0,1
16.908303022384644,988.299310207367,744.3358898162842,1.4468366107891661,-62.77660300674553,1339.934960373246,2.6715779314402153,1208.0971931873682,70.17250866858377,1000.0,1
17.0665864944458,992.5318360328674,771.7462778091431,1.4537890790944563,-90.97135503067803,1356.1646690520045,2.6809206778034995,1231.0662131127553,70.30946151316955,1000.0,1
17.22491192817688,996.3823556900024,800.3677129745483,1.4596181574320894,-137.70868784212465,1364.6168409018335,2.701033308537401,1266.7042170082527,71.12784878192971,1000.0,1
17.36667513847351,999.3742108345032,826.8703818321228,1.4628175409681614,-225.219983787385,1382.6231421988252,2.747201228317177,1344.8018709671846,73.58976456054887,1000.0,1
17.524994373321533,1002.7832984924316,851.4066338539124,1.4680203364492124,-254.23569706133213,1393.9127668914375,2.7539512187420927,1369.0908149448385,73.67841230091629,1000.0,1
17.66663408279419,1005.3279399871826,877.1673440933228,1.4758151671216844,-280.69810419953507,1401.8733385257976,2.764362880321532,1388.949015234148,73.8283456675849,1000.0,1
17.966708421707153,1006.4271688461304,891.0223841667175,1.5689433163284565,-286.35811374191957,1405.297511366427,2.814083497806617,1391.3204854858357,71.34127730085198,1000.0,1
18.06663727760315,1006.4612627029419,893.8682675361633,1.6093457594968645,-293.4471907044596,1404.9096167155883,2.8793884179146656,1396.755256947741,72.76808412891526,1000.0,1
18.258350372314453,1006.4691305160522,897.2395062446594,1.6920080536997977,-297.7676923508226,1404.4497058643028,2.9398202893117134,1399.3912521950672,71.49437472534665,1000.0,1
18.349965810775757,1006.2639713287354,898.5161781311035,1.733416194510751,-301.07573274983537,1407.4193471467406,2.9958971169098882,1402.8968377234312,72.33482856925377,1000.0,1
18.466639518737793,1005.9374570846558,900.6208181381226,1.7832367285257318,-305.4271720683858,1405.3265188879636,3.0577003994515235,1405.1352372505226,73.02138948679767,1000.0,1
18.608204126358032,1005.1060914993286,903.8916230201721,1.8527800402790384,-301.6861743213352,1403.638304447695,3.111890250376869,1399.0899798106364,72.14170098043606,1000.0,1
18.708215951919556,1003.8009881973267,911.0832214355469,1.8950545140481505,-301.75455000104535,1400.1671589235173,-3.115557491922552,1394.158657122344,72.91307928029953,1000.0,1
18.849915027618408,1003.3843517303467,910.1014137268066,1.959583074509035,-285.6796699177952,1402.659244438565,-3.072400247875334,1379.9635025982225,71.68859304715774,1000.0,1
18.949925422668457,1002.9686689376831,911.3649725914001,1.993192046837217,-305.31771065866894,1405.4184737314583,-3.006592589373281,1398.4641979779387,73.53344187078677,1000.0,1
19.108347177505493,1000.5563497543335,913.1727814674377,2.0598690067915255,-300.9691350796118,1409.8101005991284,-2.9574366624896173,1393.0603771648052,72.52956062312971,1000.0,1
19.224931478500366,999.3478655815125,914.7161245346069,2.1110308319256363,-305.34393909329486,1409.1695636128666,-2.9030997050109684,1395.243673557391,72.71148230586721,1000.0,1
19.341610431671143,998.1030225753784,915.7243967056274,2.163258938358632,-305.7052190112056,1412.0224877538922,-2.8472465578167245,1395.0726597590722,72.91918184204961,1000.0,1
19.483265161514282,996.575117111206,917.3192977905273,2.222111433325167,-312.08254784136096,1411.3139880137094,-2.7875831954395336,1398.790777067036,72.96564112242494,1000.0,1
19.599985122680664,995.3919649124146,917.8334474563599,2.2764034822623977,-315.60234843564996,1408.6751473530878,-2.7308880709961953,1399.8684452435066,73.10332720677614,1000.0,1
19.724907875061035,994.111180305481,919.1349744796753,2.3297221416175775,-317.4195583376257,1407.2663221441253,-2.6759816396180134,1399.4231279275205,73.19429984252315,1000.0,1
19.841559648513794,992.9797053337097,919.3309545516968,2.381708942222486,-316.0766422161735,1409.8266911945664,-2.624481200823397,1397.9322546981566,73.16643336347705,1000.0,1
19.983250856399536,991.1653995513916,920.7581281661987,2.443430936619583,-310.65710330457637,1414.349754494459,-2.569206698641483,1392.2551930316345,72.79701927110357,1000.0,1
20.108251094818115,989.9778366088867,920.8057522773743,2.503693612934833,-306.90688364996845,1416.7740311101925,-2.526541000977939,1388.4864101781038,71.78878666217908,1000.0,1
20.199856758117676,988.9485239982605,921.7967987060547,2.5442779790028607,-307.80000922987745,1416.8386365502863,-2.474341688371724,1388.028522633999,72.45427407808724,1000.0,1
20.324912309646606,987.8244996070862,921.8444228172302,2.6041248426457364,-310.0925669400594,1413.9788786789147,-2.420049190740929,1388.0868251952484,72.13603234772413,1000.0,1
20.466586351394653,986.2092137336731,922.616183757782,2.666423570343688,-312.10929593334305,1415.0207938762069,-2.3665699978366397,1388.5579759627828,71.63071022677853,1000.0,1
20.58326029777527,985.4987859725952,922.7575659751892,2.7251899644512636,-307.34178258896594,1415.858502424485,-2.31118433035246,1383.685393883217,71.43700885957043,1000.0,1
20.68324375152588,984.440267086029,922.8631258010864,2.7696654668146197,-304.69891245981484,1419.7517090631472,-2.2595639188331416,1381.5853532866906,71.84638199921139,1000.0,1
20.799911737442017,975.9543538093567,925.1075387001038,2.8014398899745903,-310.0526663090673,1409.8600514849263,-2.205242775446311,1374.3358594044862,73.13821391007275,1000.0,1
20.983232975006104,938.3760690689087,940.4244422912598,2.8186056542042794,-326.0412338303804,1384.9991302934918,-2.1852346330158423,1340.297641974869,73.30107018475739,1000.0,1
21.15828037261963,913.7126803398132,950.2716660499573,2.8425485416697467,-343.2263677092097,1363.0341176282163,-2.166456688347146,1322.9771774083174,73.00514076107592,1000.0,1
21.31658697128296,887.1436715126038,959.1519236564636,2.8541205166947656,-363.8917739211121,1338.6220609589004,-2.146419397481727,1307.320645762112,73.49016763097609,1000.0,1
21.48336911201477,861.1062169075012,967.880129814148,2.8732617158836753,-374.02330566379334,1321.9923706105762,-2.1334571993429727,1284.8892623915344,73.1361369491953,1000.0,1
21.65827989578247,832.0308923721313,975.9113788604736,2.892021851490891,-391.43196000675385,1298.0953367354687,-2.1142199962875847,1265.1734481339206,73.16347090051862,1000.0,1
21.799914360046387,807.3052167892456,982.5786352157593,2.9038263277752225,-407.32708604045985,1273.0610757968482,-2.0943531106819053,1248.884173718019,73.6254129273388,1000.0,1
21.958276748657227,778.9928913116455,989.6294474601746,2.918859615095361,-420.31524413746797,1248.6371690076717,-2.0800980706331464,1226.9576209371107,73.58082264327116,1000.0,1
22.099952697753906,751.4171004295349,995.7983493804932,2.929776936465023,-432.7956298030437,1226.0869087343042,-2.056062256270102,1206.39653970581,74.33245692536397,1000.0,1
