time_stamp[s],x_true_pose[mm],y_true_pose[mm],theta_true[rad],x_pose[mm],y_pose[mm],theta[rad],p_err[mm],a_err[mm],num_particles,valid_pose
6.016412019729614,179.08017337322235,31.76075965166092,0.37189571759228246,16.45134128631257,166.30833911343095,2.3532719162696383,211.07152381354908,113.52449381188698,1000.0,1
6.133052825927734,195.68252563476562,38.72773423790932,0.4409458505692766,-3.620821709877575,205.4424113133244,2.4081007926789657,259.8376566534178,112.70967583118697,1000.0,1
6.233042001724243,210.05436778068542,45.808095484972,0.5027559372155483,-15.302247661458157,249.7703455764526,2.457163281216361,303.9509887891761,111.97929226061939,1000.0,1
6.332968711853027,223.87172281742096,54.10127714276314,0.5678988355324573,-29.081417810930564,263.5490252812113,2.498424620362027,328.4107954285507,110.61097971191522,1000.0,1
6.416272163391113,234.958678483963,61.521321535110474,0.6228296857835143,-33.75811442816195,302.53908299492707,2.5469611315501566,360.96852512660837,110.24461107083386,1000.0,1
6.524601459503174,248.4026551246643,72.21493124961853,0.7002125333381365,-56.40086372056334,319.2225066476239,2.6143525934723444,392.3237533013192,109.67214684260772,1000.0,1
6.599613428115845,257.6712965965271,80.11879026889801,0.7562436643572312,-67.07290367685877,332.22375193059764,2.6622742230437026,411.11519955560874,109.20750663569719,1000.0,1
6.657984972000122,264.3565535545349,86.08677983283997,0.8004508754796746,-81.50224864283314,331.6967709167181,2.7127889441371864,424.19639175459855,109.56890033627448,1000.0,1
6.741302728652954,273.62561225891113,94.91056203842163,0.8647904581213698,-78.68544673442983,363.1381855697135,2.7541467771592187,442.7969515638673,108.25214307724141,1000.0,1
6.816255331039429,279.8214852809906,105.87675869464874,0.9200429866313645,-97.51093839216749,360.2746341805564,2.800706950339029,455.08025336945025,107.7541078027938,1000.0,1
6.89958381652832,289.10550475120544,116.33328348398209,0.9897146377504988,-112.54679853735851,375.8833036933257,2.847720874244808,478.21625414416775,106.45591566010982,1000.0,1
6.97462797164917,294.0797209739685,127.51099467277527,1.0479212926844337,-111.92276471541062,388.95820279649917,2.885212499717402,482.9002599105164,105.26903189948582,1000.0,1
7.033005714416504,298.84305596351624,135.89003682136536,1.0961167586585325,-133.75206725353007,410.79909874510054,2.922204459730793,512.5558827669033,104.6271182921876,1000.0,1
7.116280555725098,304.7385513782501,147.22789824008942,1.165175605649095,-137.9297773478137,408.40138201730616,2.969335724657726,513.971631401437,103.37076038501488,1000.0,1
7.19128155708313,308.7270259857178,158.7597131729126,1.2266491251724077,-138.42457504775757,407.5987607378723,3.0230836182502374,511.72788266796306,102.92811462508314,1000.0,1
7.282980442047119,313.35222721099854,172.28691279888153,1.3038000490498605,-150.31508052133668,393.2833527014344,3.0824866139191944,513.6407292158154,101.91123324363515,1000.0,1
7.332916021347046,315.1554465293884,179.92202937602997,1.3450540038828176,-155.3965356152254,405.42878073747147,3.1382319519925597,521.7973388297568,102.74152834261716,1000.0,1
7.40789794921875,317.89255142211914,191.68242812156677,1.4096057430161746,-162.64589657677055,398.0496487186672,-3.0967128744657706,522.9767009553618,101.80696207705654,1000.0,1
7.49958062171936,319.96485590934753,207.13232457637787,1.4865760255108305,-175.76115688115445,398.23773496220673,-3.039469915959709,531.2867000367174,100.67666967142287,1000.0,1
7.574548006057739,320.4512894153595,219.9893444776535,1.5498060414462718,-193.2810327266595,396.8764007685459,-2.9895071785011615,543.3322459570097,99.91651060907209,1000.0,1
7.6328606605529785,320.30948996543884,229.8266589641571,1.5972180667966491,-211.69008544753342,388.2625851237583,-2.93647534353246,555.0905249935665,100.23850198186912,1000.0,1
7.707857608795166,319.3611204624176,243.43188107013702,1.6618620602935659,-222.15555245801136,376.60977644581425,-2.8707893985940163,557.6528121219382,100.2982014019262,1000.0,1
7.791203260421753,319.89383697509766,249.85525012016296,1.724571449533165,-229.99693571956985,368.570579289247,-2.8142282598371042,562.5595002081668,99.94593259787894,1000.0,1
7.874624013900757,316.4605498313904,261.28971576690674,1.8008409601612065,-237.86912707730838,368.7939165712923,-2.772507210638601,564.6578998759267,97.9664515692959,1000.0,1
7.957974195480347,313.1234347820282,278.53354811668396,1.871974594214091,-243.15156729832015,364.4700802363235,-2.7106002415952584,562.8738450951878,97.43780260526808,1000.0,1
8.016277074813843,310.30598282814026,288.2896661758423,1.9089050376511516,-262.93852606660886,344.4115830993031,-2.652148654244511,575.9851877758193,98.670873321816,1000.0,1
8.099655151367188,305.4269254207611,300.5962073802948,1.9719264919697859,-267.8480934994181,341.12057475376344,-2.612355379495706,574.7055521473163,97.33999666669281,1000.0,1
8.174618005752563,302.1789491176605,311.129629611969,2.0328085389020343,-278.5923274279303,332.624325926231,-2.5606296609098864,581.1689062828788,96.81537769660642,1000.0,1
8.257935762405396,293.40484738349915,323.7140476703644,2.0937517593150865,-292.5781233682222,329.1491635917593,-2.504133968220681,586.0081761341659,96.56055312876258,1000.0,1
8.31621265411377,289.0438139438629,332.96728134155273,2.135279684966016,-297.81310566250687,319.71857577847004,-2.4575542124464413,587.0064499551725,96.85000167364527,1000.0,1
8.391172885894775,281.9826304912567,343.28144788742065,2.1839253543263903,-310.77593831810844,312.42486351582994,-2.3999729937653056,593.5611591874995,97.36197093735595,1000.0,1
8.499504804611206,271.38426899909973,357.63823986053467,2.257329101547192,-326.6328800271635,305.9886395428405,-2.3533756367102936,600.243443731356,95.82607791687518,1000.0,1
8.5912926197052,265.3609812259674,369.7177469730377,2.3202338799524562,-334.54336217433706,297.13791510354537,-2.2951030327374244,604.2789531538842,95.56067387193056,1000.0,1
8.674623489379883,254.7600269317627,378.85135412216187,2.3687899643211807,-342.5007269838808,278.1984631924806,-2.2302739219607397,605.6826005593896,96.4930496050116,1000.0,1
8.77462911605835,242.64445900917053,391.9910788536072,2.426520082188427,-359.2410787942626,273.4905140492293,-2.1854081915223107,613.4399599601289,95.75597449931917,1000.0,1
8.874572038650513,229.4086366891861,402.01354026794434,2.4752836039616444,-361.3827682566287,258.69911162212736,-2.135924693354281,607.9255790110551,95.79722610809101,1000.0,1
8.99121379852295,214.91631865501404,413.5498106479645,2.5322460383651015,-369.7560892376455,240.1710174186225,-2.081878311439979,609.8377083230122,95.6301486076238,1000.0,1
9.091203212738037,200.4442662000656,423.0763018131256,2.5753604235901792,-382.45469363977065,224.75950053821308,-2.039292521249151,615.7115810590833,95.59986234308973,1000.0,1
9.249525547027588,176.67289078235626,437.5842213630676,2.63202341235047,-394.8931396232766,199.8821571051149,-1.9829905559211645,619.0234231966871,95.57917722411334,1000.0,1
9.391186714172363,153.04067730903625,450.25181770324707,2.6773501224846306,-406.6866130792779,176.46604474911888,-1.9396225270126257,623.0997424791103,95.46695305647368,1000.0,1
9.566101789474487,124.60988759994507,465.2462899684906,2.7177067759199702,-419.5967694738412,148.82656753345,-1.8873432698475063,629.5095919438352,96.15006793099703,1000.0,1
9.891108274459839,72.70658761262894,486.90065741539,2.7442251221510605,-431.69778614257723,94.80415472609586,-1.854574754624259,638.8767014726374,96.50817623549115,1000.0,1
10.22449779510498,17.573824152350426,510.08182764053345,2.731548834856013,-441.5721610065037,41.62347170519282,-1.8588381454072467,655.9483721552612,96.99019969911252,1000.0,1
10.549423456192017,-32.052747905254364,536.2893342971802,2.6779683608881144,-458.682276919948,-11.08960278825583,-1.9066515252374392,694.0003283803841,97.32062985325771,1000.0,1
10.749435424804688,-62.166765332221985,552.7346134185791,2.614734394832149,-470.1933023306775,-39.793961563558376,-1.9642022759795543,719.4273883202629,97.64625410480542,1000.0,1
10.89943528175354,-85.62834560871124,565.3302669525146,2.545848306705644,-477.7129749501656,-61.92710527574168,-2.021714395140861,739.7176269229516,98.29793452282408,1000.0,1
11.024484634399414,-105.23951053619385,578.0958533287048,2.4820274604125103,-488.6935758620803,-81.4431598028847,-2.0952005757642955,762.908074447728,97.74415165811497,1000.0,1
11.13280463218689,-119.76375430822372,589.3568396568298,2.440609917656576,-502.1731993209675,-95.56082487335047,-2.1494439523960884,784.4419614097854,97.00928550829236,1000.0,1
11.257814884185791,-128.45028936862946,597.2785949707031,2.365117794198792,-512.9387691444364,-115.76185667138344,-2.211001302793292,810.0975723690707,97.80768919313618,1000.0,1
11.34110975265503,-140.31660556793213,606.8542003631592,2.3083682026177827,-520.1257238735813,-125.74349102537607,-2.273399430687059,825.1995781481751,97.48405190198879,1000.0,1
11.44114065170288,-153.45194935798645,622.1908330917358,2.2519920155304476,-529.6930597302467,-142.1158762390112,-2.3440648376441358,851.8932556735887,96.6653399109181,1000.0,1
11.541118383407593,-165.85125029087067,632.2687268257141,2.1839304415885046,-540.1634087217134,-151.68874067831533,-2.405227147538138,868.7340806049269,97.06063862261145,1000.0,1
11.64112639427185,-174.35404658317566,646.750807762146,2.108683132078306,-551.0038774873663,-162.51141677005214,-2.468481836237714,892.6199881108182,97.74776518036089,1000.0,1
11.716125249862671,-182.17717111110687,658.5667133331299,2.05676969788989,-560.4122631469963,-169.17199836548787,-2.528312110112451,910.0621735309545,97.29416367925302,1000.0,1
11.799478769302368,-189.21612203121185,671.7426180839539,1.9989118246611628,-569.508779149392,-176.61342679405286,-2.577720225716666,929.6937581478431,97.77829912904605,1000.0,1
11.899465084075928,-196.7138797044754,686.8828535079956,1.9244505882784293,-587.7707003550165,-185.63147729810444,-2.649811258814625,956.1415661079304,97.91410177385168,1000.0,1
11.96614384651184,-199.48334991931915,698.932945728302,1.8789433069281698,-601.8014975773104,-193.83658317685325,-2.7150923294114166,979.2330282810574,96.78114710504424,1000.0,1
12.041152954101562,-202.50844955444336,712.2052907943726,1.8200102542355663,-611.2844973634045,-198.65124506562137,-2.7675278367664546,998.3774267185645,97.15342903008165,1000.0,1
12.124459028244019,-206.29897713661194,726.7090678215027,1.7590756312462916,-623.8040768377323,-203.32440980052135,-2.8353552290570003,1019.4472903363658,96.75850243996148,1000.0,1
12.207895755767822,-208.5360586643219,741.5010333061218,1.691902868486165,-635.6145751393889,-204.99451946757256,-2.901302321209439,1038.3881213953314,96.8287281928552,1000.0,1
12.282893180847168,-209.51366424560547,754.4990181922913,1.6352232736917702,-650.6218217010704,-212.21202236704863,-2.964709613317178,1062.594298174556,96.44325953095911,1000.0,1
12.341206550598145,-210.25694906711578,765.0140523910522,1.589436794679786,-661.9267607805642,-221.5723159649644,-3.023057123800525,1085.0614180953887,95.723565441319,1000.0,1
12.416193723678589,-210.14568209648132,778.2686948776245,1.5321735250875326,-675.3439688689592,-219.35989792474112,-3.0941287587301742,1100.7598535524799,94.93240438551148,1000.0,1
12.499444484710693,-209.33851599693298,792.8082346916199,1.4652380483914005,-685.4270031408392,-221.34993965327365,3.1269658724989853,1120.3468436968708,95.20999102082222,1000.0,1
12.582798719406128,-207.66538381576538,807.2928786277771,1.3986449239185943,-695.7395439902251,-220.6184733277486,3.0595622653941077,1137.9007572319483,95.16355378663587,1000.0,1
12.64949917793274,-205.28556406497955,819.3979263305664,1.346272536026476,-707.8713025869163,-217.63824613253308,2.9933573111576006,1152.4046370795963,94.37100611526769,1000.0,1
12.72445273399353,-201.765775680542,832.6244950294495,1.2876128521901624,-720.5309837194721,-218.89741916544253,2.9328668737493593,1172.5253417746517,94.26611166226773,1000.0,1
12.799422979354858,-197.6771205663681,845.6783294677734,1.2294917050207288,-728.8406229784863,-217.2762293587436,2.868721580941151,1188.2790330662172,93.92095354199381,1000.0,1
12.882732391357422,-192.15098023414612,859.446108341217,1.1624243046117544,-740.090056632591,-216.96626312685237,2.7993516237535228,1207.8496698239785,93.7890267564877,1000.0,1
12.941080093383789,-190.51097333431244,864.9395108222961,1.1228118790540516,-750.5134619297982,-217.07608017568708,2.733984652556351,1218.3433532448282,92.31339998806908,1000.0,1
13.041115760803223,-181.50527775287628,883.091390132904,1.041084754292076,-762.8570589163952,-209.57675233681059,2.6639770071303532,1237.6968784925543,92.98487669211138,1000.0,1
13.124460935592651,-173.72280359268188,896.740972995758,0.9870710884868654,-774.5107724028064,-206.33864746096532,2.587298033841818,1256.077558327488,91.6862502319506,1000.0,1
13.224403142929077,-162.37744688987732,910.4083776473999,0.9225995898018866,-786.9948741805187,-195.96401976538564,2.524378169610421,1270.5143888331586,91.77515233748791,1000.0,1
13.324429988861084,-150.44955909252167,924.8051047325134,0.8560552556417724,-801.0404091155955,-183.8102721095354,2.4498343742158046,1285.4168615295132,91.31681697037244,1000.0,1
13.416057586669922,-138.84656131267548,938.9691352844238,0.793800665342529,-813.1490155088229,-175.51297609314958,2.3851155494902527,1302.5951697728506,91.17562673801412,1000.0,1
13.516065835952759,-125.46204030513763,950.6886601448059,0.7363552640743304,-826.3777920546852,-164.87813112387485,2.3144127796759957,1317.487061352837,90.41603547287548,1000.0,1
13.624449729919434,-110.59869825839996,963.971197605133,0.6718578869111858,-840.4886704823182,-150.37078240480628,2.2455943765918724,1332.1026311682986,90.16845892443678,1000.0,1
13.716063499450684,-97.38042950630188,974.391758441925,0.6204545900286609,-847.6111283476681,-136.21462269533222,2.1910348153287904,1340.2584210915445,89.98761829640338,1000.0,1
13.816048622131348,-81.82667195796967,984.6780896186829,0.5696992501982927,-854.3054334678817,-120.00325214553446,2.1290134259235085,1347.9778573203191,89.34212120397567,1000.0,1
13.957839012145996,-58.77608060836792,998.4917044639587,0.5040893630558643,-866.9287366271471,-100.99590767653793,2.0696172643615682,1364.5452446440236,89.69814145479012,1000.0,1
14.074474334716797,-38.67259621620178,1009.0819597244263,0.45774378538728194,-879.7815619121292,-81.60933560457468,2.0143129586536523,1377.3422936512648,89.1848441483308,1000.0,1
14.21612024307251,-16.83531329035759,1019.6138620376587,0.40834665916589086,-891.9885025332175,-55.71221730321531,1.9650400650289017,1386.4412290294042,89.19196215179625,1000.0,1
14.382742404937744,12.253353372216225,1032.2206020355225,0.36831611152004456,-903.5642941930506,-29.47035582573546,1.9116122210867565,1402.1090020381207,88.42435361713207,1000.0,1
14.6493661403656,59.33631584048271,1050.3284931182861,0.3257617111415128,-920.7779173949646,17.90117077340417,1.8598267428292603,1423.5624630183713,87.89545181431083,1000.0,1
14.957764148712158,114.56574499607086,1067.763090133667,0.3266356353768286,-937.2317685285851,74.90662476113368,1.8538311862956902,1446.3892872559204,87.50185955880738,1000.0,1
15.257734775543213,168.58837008476257,1086.7244005203247,0.28369723095635085,-950.6023020960032,124.59173222300831,1.8215566278324742,1475.902107899216,88.11285292553613,1000.0,1
15.474385976791382,206.988126039505,1097.217082977295,0.2214685758454543,-958.6612558813126,164.9168864074554,1.7700541939721595,1492.6225705437212,88.727420133318,1000.0,1
15.632718086242676,236.5283966064453,1103.2463312149048,0.16275416472220786,-960.0875154669034,187.6261295463995,1.7162338873768093,1506.7348787131086,89.00783166726231,1000.0,1
15.774362564086914,260.5275809764862,1107.004165649414,0.10671062656744211,-960.7966280995141,215.41536263049608,1.647978443890254,1512.1386898508433,88.30814103193748,1000.0,1
15.915973663330078,283.0278277397156,1108.6044311523438,0.021328655230735336,-966.0513591027127,240.36972933249075,1.5917488981242223,1521.193712992251,89.97845197970642,1000.0,1
16.015994548797607,304.62220311164856,1108.2649230957031,-0.029041616605639007,-968.0923963424481,254.4149143506046,1.5275263091396962,1532.5998463713893,89.18477267064063,1000.0,1
16.132680892944336,325.38479566574097,1107.9522371292114,-0.0993958162155471,-964.4771790713835,278.7581154054123,1.4640488001803142,1533.3971453521285,89.57877802193283,1000.0,1
16.232654809951782,343.9522385597229,1106.4167022705078,-0.1671558025172099,-967.958751419895,294.68189810857166,1.4017353024804011,1542.7325879481245,89.89083883197921,1000.0,1
16.307617664337158,358.19950699806213,1099.7843742370605,-0.2079762758718602,-969.6743491043321,303.7852275608046,1.3523505961077764,1548.1807450131814,89.40014442528269,1000.0,1
16.415960788726807,378.89260053634644,1096.2995290756226,-0.2846204622238939,-964.9223248295036,323.26741370675296,1.294632117258214,1550.2958443560683,90.48450758947337,1000.0,1
16.490950107574463,391.3626968860626,1091.1438465118408,-0.33793498690956547,-963.2086183356207,333.8946563480856,1.2351559543736301,1551.8665483942439,90.1314717257891,1000.0,1
16.582642316818237,406.55258297920227,1085.0225687026978,-0.40578729611557285,-961.1795459463133,350.74860107287265,1.1711338854543774,1552.3689754803684,90.35092832874112,1000.0,1
16.649311304092407,416.67282581329346,1078.3836841583252,-0.4529573961070108,-957.1761740328689,359.5058151961615,1.116401719917186,1550.5632734144976,89.91765388856817,1000.0,1
16.732658624649048,430.71407079696655,1073.7382173538208,-0.5288519048026199,-954.4194556173045,372.3206461098881,1.056431727383948,1552.6047453381595,90.8300614554599,1000.0,1
16.815932512283325,443.4370994567871,1064.2080307006836,-0.5956129142885098,-948.8725064820185,377.69331358682234,0.9919386739503386,1552.3622307964713,90.96000576537672,1000.0,1
16.890982151031494,455.8638036251068,1056.3462972640991,-0.657138720586549,-943.9735204389835,385.2300071605037,0.9365001739261991,1552.3986629359504,91.30878272347468,1000.0,1
16.949273824691772,463.14772963523865,1049.104928970337,-0.7025158327847213,-942.0705141518746,395.4830449912779,0.8731443760621629,1549.7934958853305,90.27867991362832,1000.0,1
17.032671689987183,475.86894035339355,1038.9387607574463,-0.7836181268490748,-933.2919428685958,401.4278644362803,0.8159142156236522,1546.6591537023255,91.64645241836145,1000.0,1
17.10761547088623,486.4291548728943,1027.6691913604736,-0.8466156053378967,-910.1231245270938,408.68445375444026,0.6967012820263109,1527.579907725456,88.42554409723614,1000.0,1
17.232649087905884,501.5310049057007,1009.790301322937,-0.949106796038371,-895.4499243599972,415.7859204370727,0.6356324805751473,1518.0240186649391,90.79887217856972,1000.0,1
17.307626724243164,509.44364070892334,998.5920786857605,-1.0162196303001503,-886.9727080690645,426.5518171220708,0.5815486351803523,1509.0423055647914,91.54537825197086,1000.0,1
17.390992164611816,516.9237852096558,984.8911762237549,-1.0878172973058406,-876.9799709034032,430.55137286771543,0.5136065979223102,1500.0867637876506,91.75483040797357,1000.0,1
17.449257135391235,521.8534469604492,974.8750329017639,-1.1383161118629679,-864.9839201691469,440.1764671285413,0.44804479264324115,1486.3446569039402,90.8917846127616,1000.0,1
17.532662868499756,527.8883576393127,960.6441259384155,-1.2108080857150287,-851.379994350829,444.66242998210413,0.38669558676952864,1472.6229311550028,91.53021819001448,1000.0,1
17.607630252838135,532.6433181762695,947.6351737976074,-1.2748402136895367,-843.3120175521583,446.4961672991544,0.321110538679635,1464.3747436205622,91.4412424214819,1000.0,1
17.690918922424316,536.8379354476929,932.5637221336365,-1.345439662487461,-828.1717408423453,452.020252953953,0.2594742208302298,1447.1259247683597,91.95479199605514,1000.0,1
