time_stamp[s],x_true_pose[mm],y_true_pose[mm],theta_true[rad],x_pose[mm],y_pose[mm],theta[rad],p_err[mm],a_err[mm],num_particles,valid_pose
0.13338828086853027,4.233136773109436,6.364420056343079,0.043478702866509636,16.289472019010724,-32.36567004494913,0.8067142989780707,40.56322347663921,43.73017843134395,1000.0,1
5.208408832550049,56.12904578447342,8.91786441206932,0.03992757292218002,31.187055336773334,-18.254701727864255,0.8048728827952013,36.88429527755989,43.82813781405106,1000.0,1
5.88342809677124,162.78117895126343,12.310847640037537,0.050410431899759696,159.38637609602566,27.98859654592331,0.7886252008625378,16.041087780507066,42.29659063579234,1000.0,1
6.208373785018921,214.35165405273438,14.689899981021881,0.05125492990057785,205.55756171362037,47.501831932241274,0.770743463221743,33.969971128046545,41.22365636736046,1000.0,1
6.550112724304199,264.9669945240021,17.43784174323082,0.051595520917542485,246.17622793428626,80.20112027425273,0.7616653374101449,65.51581519749118,40.68400364465497,1000.0,1
6.866878271102905,321.5300440788269,20.304854959249496,0.05051310600302891,288.87722377196707,116.3777276024104,0.755588539012034,101.47021007123762,40.397846549775004,1000.0,1
7.183459520339966,373.1708526611328,24.54948239028454,0.05167007624341461,345.7387360795496,133.17415295304673,0.7401458212771094,112.03499486773848,39.44675448755566,1000.0,1
7.525121688842773,430.76232075691223,24.891449138522148,0.05273072876947049,406.4647620983046,174.6852419810445,0.7452526139368717,151.7516119549212,39.678581240535536,1000.0,1
7.825126647949219,480.3818166255951,27.363093569874763,0.05192318249068521,434.7827156806012,199.05913006910717,0.7367337657936378,177.64798607509596,39.23675618915127,1000.0,1
8.125106811523438,531.4783453941345,30.17108328640461,0.05249586350815664,502.9335839289355,247.78726811302397,0.7282721103380488,219.48031188605157,38.7191268385438,1000.0,1
8.425171375274658,582.6510190963745,32.607462257146835,0.053563354128796314,558.7087829512213,255.12472558049754,0.7113874543649256,223.80161560753683,37.690544605521026,1000.0,1
8.716817617416382,633.677065372467,35.84698587656021,0.05433589212147467,623.7254013092478,260.83444806248855,0.6797302306686729,225.2074460547246,35.83245613013023,1000.0,1
9.016845703125,682.6022267341614,35.15799716114998,0.0463600083753511,693.9397569618553,289.94370434071953,0.6613696151367492,255.03783283006706,35.23745482742853,1000.0,1
9.31684160232544,736.2686395645142,37.7446785569191,0.04227801714965681,731.5165893718278,334.06324600529655,0.6493425991934043,296.35666922762584,34.78223844298003,1000.0,1
9.616911172866821,787.6855134963989,39.50135409832001,0.040266540160738475,789.1784110088918,378.2251045160894,0.6319247330415533,338.72704031426565,33.8995173664079,1000.0,1
9.975182056427002,804.8896193504333,40.20917788147926,0.12755431194828412,817.8666893375336,393.53659381503155,0.6618073111642391,353.5656476465602,30.610442047280298,1000.0,1
10.116822957992554,805.9633374214172,40.794070810079575,0.17763419805341474,820.7086526849324,410.5180676346156,0.7029169671820753,370.0179159853344,30.09648572201706,1000.0,1
10.275135040283203,808.4620833396912,41.359517723321915,0.2345880972637492,830.9382736523762,411.59303803698816,0.738655652719112,370.91513678309485,28.880943517068868,1000.0,1
10.416788101196289,809.9896311759949,41.9149324297905,0.28807214413190496,855.2564253024881,438.6990617030102,0.7639179559700616,399.3578944926436,27.263956717302683,1000.0,1
10.575145721435547,812.3740553855896,42.37750917673111,0.3455189145738116,867.094034275406,433.0590991275272,0.8002551844277535,394.495096061008,26.054469054152957,1000.0,1
10.71679162979126,813.7264847755432,42.98701137304306,0.40045986392469113,874.9422421522091,447.25619829828713,0.827313898927096,408.87766440391033,24.45693467376731,1000.0,1
10.875109195709229,815.7243132591248,43.871358036994934,0.45862493852747954,897.1466101766432,461.5518737536279,0.8511071615260019,425.54271659216187,22.487574911727744,1000.0,1
11.01677393913269,816.7369365692139,44.82490196824074,0.5137889889930923,900.4420047961152,477.2246588136524,0.8993111518961677,440.4271655641161,22.088792843101213,1000.0,1
11.175156116485596,818.2365298271179,45.778024941682816,0.5735720762388502,911.2962065393048,483.87368959471075,0.9459712564106318,447.87042190521476,21.33690131797502,1000.0,1
11.316785335540771,819.0029859542847,47.02579602599144,0.6297498003741236,919.3542186037663,490.52189017426633,0.9896334080307915,454.70776925300703,20.619811834669065,1000.0,1
11.450148582458496,819.8435306549072,47.89086803793907,0.6791563083977542,938.8686492144867,503.2556013798264,1.0215649840280006,470.66338206795956,19.618571982277118,1000.0,1
11.591870784759521,821.035623550415,48.75531792640686,0.7346502082333296,942.5947397810786,512.5105149521426,1.0565759293612869,479.4220494586778,18.444985137337465,1000.0,1
11.750128030776978,821.8498229980469,50.08639395236969,0.7985176270368698,939.5880154468325,527.7337585009965,1.108869537160476,491.9443940338746,17.781854613906077,1000.0,1
11.875110149383545,822.9328393936157,51.05818808078766,0.8506454692314805,945.8375041773031,529.799604586894,1.1566758909836807,494.2660220001612,17.534251569009655,1000.0,1
12.03352427482605,823.4748244285583,52.25231498479843,0.9144412767827342,946.7474192112119,529.9700603171977,1.2026399262930507,493.36637180691537,16.512566278311184,1000.0,1
12.15019941329956,824.0174055099487,53.383633494377136,0.9622091052433006,950.0794343717193,527.6025868481329,1.2491965203038327,490.6885476966805,16.443167656337685,1000.0,1
12.275175333023071,823.8924145698547,54.17225509881973,1.0128691982461342,945.2306574178807,533.4064275384746,1.3023366943310362,494.35651225746733,16.585265831884563,1000.0,1
12.391824960708618,824.7349262237549,55.143699049949646,1.0598613163695403,942.823849894978,533.9788099191949,1.3572665473106111,493.18156625627273,17.040064538036926,1000.0,1
12.533530473709106,825.1734375953674,56.23131990432739,1.1199590298447257,942.8443099203749,540.6148447847733,1.4001850960688766,498.47149704805963,16.055770904197356,1000.0,1
12.66692066192627,825.5692720413208,57.49721825122833,1.177134870918319,942.6234803252981,536.9713491798317,1.4531917179551115,493.55559961034606,15.816892240896763,1000.0,1
12.908457517623901,841.7205810546875,96.35299444198608,1.2062000168486395,940.2345380434542,577.929192950089,1.4975619807956715,491.5492189914458,16.693810844807782,1000.0,1
13.225264072418213,860.3535890579224,143.9090371131897,1.2267875107082375,943.2806439711587,620.2050016161321,1.5142817118997094,483.46121068641185,16.4722043627563,1000.0,1
13.5502028465271,877.8147101402283,195.13320922851562,1.2466486694264052,949.3918164172048,660.1727711436192,1.5239703445634751,470.5157556226753,15.889361552852204,1000.0,1
13.866847038269043,895.7427144050598,251.0855793952942,1.267193096022983,947.4024930986052,700.583352950054,1.5348291964132952,452.45660694187256,15.334418997704502,1000.0,1
14.208451271057129,913.0544066429138,304.27053570747375,1.2825983412552424,947.2274573054451,734.0155062430088,1.5340370910685328,431.10153919021417,14.406379170347355,1000.0,1
14.525145053863525,927.6794195175171,357.06111788749695,1.30359335415002,942.189618146737,778.7848201637894,1.5469573802739172,421.97325380393767,13.943731582210818,1000.0,1
14.850218296051025,943.4178471565247,413.66416215896606,1.3192637665210736,945.6174329141245,820.3445455581437,1.547134106706893,406.6863317339387,13.056008768857776,1000.0,1
15.141901969909668,952.6515603065491,457.0530652999878,1.3468354270394338,948.9527999781134,847.2662840273571,1.5615617185232469,390.2307482727892,12.3029102525184,1000.0,1
15.466906785964966,966.3437008857727,514.1662359237671,1.3609679201439417,949.7958380456571,873.2433885464121,1.5608627470235616,359.4582497316783,11.453129926700464,1000.0,1
15.766908645629883,977.8419137001038,567.3341155052185,1.3776961540403416,952.9893389565565,897.9640444567542,1.5569182480896662,331.56266434850767,10.268669584523002,1000.0,1
16.05847692489624,987.1083498001099,615.2752041816711,1.3882038236366714,959.1463167967048,891.1010959700509,1.5485478894296052,277.23960371948755,9.187038239903103,1000.0,1
16.366846561431885,999.019980430603,668.4147119522095,1.4092078516622941,960.7166562652363,928.7267075760853,1.5636023448943266,263.11495531003544,8.846152842256613,1000.0,1
16.658461570739746,1005.44273853302,721.7670679092407,1.418347698987421,964.9333783520931,957.7963446960599,1.5647537475129294,239.4803285507538,8.388448675699157,1000.0,1
16.9584321975708,1014.8859024047852,774.5287418365479,1.429745326404884,967.7830228733982,977.9967223179914,1.5534623123842526,208.84898932325586,7.088461150696997,1000.0,1
17.258443117141724,1022.9613780975342,827.993631362915,1.4435852617193548,978.2376101434965,995.3439169299043,1.5488012977478547,173.22336302981608,6.028434801529459,1000.0,1
17.55843949317932,1028.7220478057861,878.2409429550171,1.455698337357505,984.7558462755833,1014.6559205081313,1.545150916085386,143.32506053656866,5.125255227669309,1000.0,1
17.91695237159729,1032.591700553894,907.3308706283569,1.5460751008236964,1000.160512530035,978.2078555132563,1.5694236233590249,77.94439648244861,1.3377717991404148,1000.0,1
18.01698350906372,1032.544493675232,909.3616008758545,1.5856026777794299,1010.9388036072504,950.402900251589,1.6053570577264515,46.3809669774396,1.1318425978622086,1000.0,1
18.258556127548218,1032.8176021575928,914.1655564308167,1.6906181867337144,1019.378808176249,903.8318370412007,1.686882672124219,16.952490675305675,0.21402922143355227,1000.0,1
18.533647775650024,1032.6189994812012,919.284462928772,1.8125980854328367,1028.6517027881825,886.706683045669,1.7911657337172409,32.81845799488976,1.227983298343613,1000.0,1
18.633628606796265,1032.1087837219238,921.0274815559387,1.8486562417888608,1034.956965729839,865.460938753873,1.8300454661617558,55.63948975075174,1.0663188968980546,1000.0,1
18.77528738975525,1030.8187007904053,923.5732555389404,1.9067807346004206,1040.704292275453,852.7430808172114,1.867665040733916,71.51670133695981,2.2411641712764805,1000.0,1
18.916964292526245,1029.4692516326904,925.5566596984863,1.9683830799609745,1041.9662808062683,845.4132257473947,1.91637562500374,81.11193342312983,2.9798076722662663,1000.0,1
19.033676862716675,1028.356671333313,927.3380637168884,2.0150329481622156,1043.7608293552628,854.5069127751814,1.9656782256966434,74.44235778008994,2.8278172963167933,1000.0,1
19.150256395339966,1026.788592338562,929.9988746643066,2.071554782477257,1046.3248792199288,853.3494868907142,2.015106998837985,79.09990613886727,3.2342197653979072,1000.0,1
19.25028133392334,1023.5426425933838,936.5315437316895,2.111158182790299,1043.41287292828,865.5059228436531,2.0641452181613986,73.75272792305982,2.6936444556338137,1000.0,1
19.41704535484314,1022.9207277297974,935.6441497802734,2.1860584461155357,1042.3427631953148,873.2375723822094,2.1145295887519335,65.3589807460641,4.098301640327664,1000.0,1
19.517009973526,1021.8279361724854,937.9318356513977,2.2229196303936534,1047.071419426615,869.0780846747226,2.1528706893806766,73.33534257341073,4.013508679404426,1000.0,1
19.650323152542114,1020.7608938217163,938.6714696884155,2.28649025619779,1044.2706407726873,871.5225101180642,2.211792478744707,71.14556186494954,4.279867387069125,1000.0,1
19.79197335243225,1018.9770460128784,940.2244091033936,2.345253341587369,1041.2291929193123,887.2922211294398,2.2688521086562483,57.41928740114675,4.37746819654914,1000.0,1
19.916953563690186,1017.6020860671997,940.4728412628174,2.4064800756916878,1037.428485439101,895.8155223939443,2.322951562913468,48.86064101718615,4.785831251196556,1000.0,1
20.033647060394287,1016.1226987838745,941.6348934173584,2.4536055771275977,1032.3969853853146,907.831779544529,2.380285892463593,37.516701772481035,4.200908486477538,1000.0,1
20.17534327507019,1014.9309635162354,942.2793388366699,2.5225457295280793,1029.6394385141734,909.874219795828,2.4358449712435286,35.58694952951297,4.967587530288663,1000.0,1
20.291953563690186,1013.3715867996216,943.0180191993713,2.573857008464525,1028.2656785050865,913.8816548530291,2.4910513312338884,32.7224952449168,4.744415825038009,1000.0,1
20.40862202644348,1012.5659704208374,942.6416158676147,2.629486603922183,1025.461086345428,911.6284537477005,2.551958011264811,33.58720350646524,4.442061150856365,1000.0,1
20.533650636672974,1011.319637298584,943.3549642562866,2.687445827505622,1021.9847658021439,916.5434797413302,2.607381278284371,28.85482053129414,4.58736075899514,1000.0,1
20.63367009162903,1010.2262496948242,943.7150955200195,2.733982213695602,1020.4185407552409,918.1417443474492,2.6581728836444154,27.529603833979447,4.343554659647261,1000.0,1
20.7919442653656,993.8095808029175,949.7016668319702,2.768816606836032,998.3971936316525,932.0237130403023,2.712772608908664,18.26352216103788,3.2110845482781016,1000.0,1
23.867063522338867,463.14558386802673,1080.5851221084595,3.0430668987796983,458.8649234321977,1100.299371582946,2.9886009792823827,20.17363839541993,3.1206673144954866,1000.0,1
24.158709287643433,411.97168827056885,1086.4112377166748,3.058993580528661,409.97091573317044,1105.0866039796467,3.0047984601451607,18.78223617683894,3.105151668177998,1000.0,1
24.442047357559204,361.49924993515015,1090.9929275512695,3.078629509263758,361.06145496355833,1112.9803485971674,3.0160933689964784,21.991779115995726,3.583056904353248,1000.0,1
24.717029333114624,312.1959865093231,1097.1089601516724,3.0986705798006278,310.00756929461664,1118.8992295582098,3.0420756378081886,21.899886089089666,3.24265131795448,1000.0,1
25.000375747680664,260.7300281524658,1098.8839864730835,3.1078748603532738,258.2963684965185,1122.289901846152,3.0510580974134967,23.532096671827308,3.255360722044536,1000.0,1
25.275312185287476,210.30548214912415,1100.7812023162842,3.1204950495832575,204.18533115001495,1126.0443615825925,3.0642120475948147,25.993912063534363,3.224778472264194,1000.0,1
25.542137622833252,160.51062941551208,1102.3021936416626,3.1353480031573433,151.1520366886532,1132.6369302933324,3.0774839841710335,31.745543081720545,3.3153640735804135,1000.0,1
25.91711735725403,128.97267937660217,1103.135108947754,-3.0522696503925375,117.70493221495981,1132.304553958722,3.138750396583294,31.270091914584906,5.280680427400224,1000.0,1
26.017081260681152,125.97915530204773,1102.6736497879028,-3.0096555764716295,115.72114279331004,1132.097562427721,-3.0832481323904957,31.160767892737624,4.216542857731537,1000.0,1
26.175477504730225,122.41575121879578,1101.5576124191284,-2.9403390997331345,108.64361378960292,1133.022703997984,-3.0225108226853687,34.347106973285946,4.7080929204813025,1000.0,1
26.300420999526978,119.98581141233444,1101.1021137237549,-2.885242158845787,102.53293499772906,1133.902563357995,-2.9640267420364617,37.15470887184837,4.514024107522984,1000.0,1
26.417076587677002,117.78110265731812,1100.2655029296875,-2.8350986368307485,101.03732570297917,1132.3067232379913,-2.9100532788653917,36.15237012343602,4.294584643498928,1000.0,1
26.55875587463379,115.554578602314,1099.1822481155396,-2.7681210422738283,100.4346752394952,1130.7615586998932,-2.854308696499246,35.01234546105197,4.938188833249306,1000.0,1
26.675450563430786,113.29368501901627,1098.2266664505005,-2.7171126920114292,97.87929846196404,1129.1532879624203,-2.791944189673621,34.55516214795954,4.2875289906866625,1000.0,1
26.800392627716064,111.29675805568695,1097.5894927978516,-2.656508565536432,94.86049510467394,1128.8260193611686,-2.734691706685541,35.29690257707686,4.479564016919541,1000.0,1
26.892051935195923,109.89096015691757,1096.824288368225,-2.617527132201483,89.55746671312625,1128.5750853012614,-2.6822785339220165,37.70363459285608,3.709982036142707,1000.0,1
27.058782815933228,107.89743065834045,1093.8602685928345,-2.5435928170506776,84.81314776338797,1125.875688483073,-2.6254782818473994,39.46987747032506,4.691691536319235,1000.0,1
27.15883731842041,106.50219023227692,1092.670202255249,-2.4991764583889085,80.90708137743701,1125.8627314424032,-2.5748888145714344,41.914837362575845,4.33799846624996,1000.0,1
27.275493144989014,105.17263412475586,1091.3896560668945,-2.4439667118498547,77.3266164712333,1125.0228066111918,-2.516586072872582,43.66451092930792,4.1607828975391055,1000.0,1
27.392085790634155,103.46253961324692,1089.8921489715576,-2.3911874419268364,75.35461475099511,1124.69597688409,-2.4572100519631075,44.73658321136249,3.7828169075164038,1000.0,1
27.533778429031372,102.33152657747269,1087.993860244751,-2.3247661774124277,70.6309623242744,1122.4319012358435,-2.3990514859280605,46.807098193279636,4.25623465777299,1000.0,1
27.658740520477295,100.8419394493103,1086.3816738128662,-2.265733091620519,72.54787551385576,1118.6358848119837,-2.339260466731894,42.905572845018426,4.212808272557025,1000.0,1
27.775453329086304,100.19540786743164,1084.761619567871,-2.213226141446937,70.75037952921163,1116.6409390102056,-2.279869668151663,43.397012592400685,3.8183928120481982,1000.0,1
27.892102479934692,98.75615686178207,1082.939863204956,-2.159859872303543,70.90720172604196,1115.5624767482718,-2.220938759927758,42.89288072103569,3.4995624782213417,1000.0,1
28.03379797935486,97.91409224271774,1080.8945894241333,-2.092845864149732,69.75490980720926,1112.0727224075165,-2.1652604605158006,42.012087924379294,4.1490507469191265,1000.0,1
28.150423765182495,96.88271582126617,1078.9376497268677,-2.040791258938589,67.28718092206547,1108.7757945109904,-2.106606726253547,42.02630807158865,3.770948503828311,1000.0,1
28.275402069091797,96.5600460767746,1076.9634246826172,-1.979179083345641,66.90139960863284,1106.468140764484,-2.04696771210571,41.83495645263398,3.8840023269310966,1000.0,1
28.392136812210083,95.32857686281204,1073.2475519180298,-1.9249342491147041,64.2120114818641,1107.745327577573,-1.9833508322039737,46.45790747077388,3.347023664590442,1000.0,1
28.55052375793457,96.23390436172485,1074.8382806777954,-1.8563869869260003,61.3434424787423,1107.658286581915,-1.9282217016202592,47.90090936458624,4.1158259745074295,1000.0,1
28.650546312332153,94.72383558750153,1071.6849565505981,-1.806141079711642,58.27017620836039,1103.0899276389766,-1.8716428000022836,48.11591723320188,3.752972123500193,1000.0,1
28.767205238342285,93.9139872789383,1064.0050172805786,-1.774050203997886,52.34697477507151,1084.1486025406848,-1.8153584840510797,46.190697717481875,2.3667901059924397,1000.0,1
29.075440168380737,80.69680631160736,1000.4252195358276,-1.7418323437110683,41.3767744002963,1035.7526025828647,-1.7795789781419176,52.859142089695354,2.16272284371086,1000.0,1
29.367090940475464,71.74055278301239,947.0030665397644,-1.7138716744162799,30.95879467708011,981.4940344618533,-1.7571935212562055,53.41140947787596,2.4821589846399044,1000.0,1
29.69214129447937,63.921913504600525,890.6352519989014,-1.6697991185823267,24.56447162364462,929.9341740576175,-1.718945690889777,55.61846371835406,2.815891170751426,1000.0,1
29.992184162139893,59.16569381952286,837.8865718841553,-1.624704097154481,17.19663119404426,873.6328925300254,-1.6741228484560353,55.128954800347024,2.831485878385703,1000.0,1
30.29211187362671,57.22010135650635,782.4381589889526,-1.5959707949678261,12.506408166890393,821.8318462073058,-1.641023988485102,59.59175237658775,2.581357842126063,1000.0,1
30.583871126174927,55.47545850276947,736.1916899681091,-1.5722724059706061,8.34018419060963,768.5058656212253,-1.6256132572391644,57.14840358770315,3.056205653323431,1000.0,1
30.883888959884644,55.064186453819275,684.4216585159302,-1.5559849227062412,5.799237362932861,712.3377529573247,-1.6056805802850036,56.624584217356414,2.847351439390408,1000.0,1
31.14221978187561,54.3208010494709,642.3835158348083,-1.538324372445322,3.2950597569931293,663.6242885764741,-1.5909272460602346,55.270215316298184,3.0139226483945727,1000.0,1
