time_stamp[s],x_true_pose[mm],y_true_pose[mm],theta_true[rad],x_pose[mm],y_pose[mm],theta[rad],p_err[mm],a_err[mm],num_particles,valid_pose
6.857614517211914,316.1512315273285,23.07724580168724,0.05295584131336514,326.4327958239247,1.228001710164546,0.0007775657617594411,24.14746429246727,2.9895949713776546,101.0,1
7.1742775440216064,366.6795790195465,28.012145310640335,0.04955588114731946,376.21935340330265,1.7196207282067861,-0.002194233416900185,27.969700466948915,2.965063153848279,101.0,1
7.515772342681885,425.03103613853455,28.54757383465767,0.05543782040304979,428.15570337037536,1.392185198234668,0.007328467121756097,27.33456927235019,2.756462898121987,101.0,1
7.815829038619995,475.14617443084717,31.242933124303818,0.05645146460713232,470.3456266165946,-0.35662518035007,9.521962440453644e-05,31.962123589745186,3.2289749867156234,101.0,1
8.115741729736328,526.6399383544922,33.9430570602417,0.05749525305138175,519.7872175776362,2.958594815289748,0.008532812735032227,31.73321103598574,2.805341184788015,106.0,1
8.415793895721436,579.1478753089905,36.65334731340408,0.051653337940024246,569.4961221491651,4.817201801476727,0.011971608652332164,33.267048262730064,2.2735956119654275,101.0,1
8.71580171585083,627.8479695320129,38.99526223540306,0.04177652926890875,620.6594934844367,3.6000557405360314,-0.008318642555792686,36.117791055113756,2.870241919538067,101.0,1
9.015772819519043,677.4740219116211,40.499016642570496,0.04008426840563869,661.608668002885,2.3774341924076565,-0.0134333576103012,41.291215811041596,3.0663341002728903,101.0,1
9.315667629241943,730.5112481117249,41.031066328287125,0.041951464602000436,713.4291281831138,1.46003445220531,-0.017747537141182032,43.10064251253495,3.4205008410284994,101.0,1
9.615607976913452,783.3337187767029,42.59710758924484,0.043502090697199694,765.8477090477566,-1.0261588255640621,-0.024124707836022552,46.997339381482014,3.8747301379351407,101.0,1
9.990534782409668,802.3813962936401,43.059609830379486,0.1366385109698784,779.6702830345249,1.378744802888085,0.03430713155701597,47.46671649596499,5.863156152108937,101.0,1
10.107272624969482,803.8337230682373,43.99016499519348,0.1738917732600148,778.320364727337,2.146128406958336,0.0913660349912855,49.00872220155047,4.7283765039994545,101.0,1
10.290582418441772,805.9938549995422,44.49165612459183,0.24324343269141943,781.7075291480112,0.8906825940254239,0.1471830494507363,49.90862166179204,5.503854538100369,101.0,1
10.448925733566284,807.7173233032227,44.957615435123444,0.30084722338006337,778.9449279685215,-1.9545274774087347,0.19371790937578787,55.03271650520422,6.138057554576731,101.0,1
10.590619564056396,808.9767098426819,45.75810208916664,0.3534107487768948,779.7878870321978,-4.290294350968519,0.23744444295208433,57.938151189788336,6.644379889485016,101.0,1
10.748896360397339,810.7970952987671,46.437475830316544,0.41070477757388535,796.3197721203079,-0.2900167815404568,0.3034327742439567,48.918825131075074,6.146233050718225,101.0,1
10.89043116569519,811.8345141410828,47.30396345257759,0.46409886594706223,786.3537890381886,-1.267615644684605,0.3614790679350873,54.84948174569073,5.879681320571161,101.0,1
11.007100105285645,813.3487701416016,47.59052395820618,0.5079540975928365,781.595999286113,2.852259694822606,0.41611560744986,54.86119526861864,5.261957882046366,101.0,1
11.165509700775146,814.4609928131104,48.67112636566162,0.5722933332144359,799.5574621757471,6.378967541030974,0.4890887831463337,44.841297076541046,4.767269555187201,101.0,1
11.307100534439087,815.8442378044128,49.87514019012451,0.625047887703812,796.627259658397,6.2452872983646435,0.5392301947711441,47.67448282279587,4.916991612591546,101.0,1
11.465478420257568,816.9859051704407,51.03372037410736,0.6883037544458457,802.3386189755332,6.780169204263562,0.6067069452691829,46.614587674005115,4.675152787557123,101.0,1
11.607114315032959,817.9358243942261,52.1414652466774,0.7450525481351348,799.6656387490694,6.430198495831243,0.6616068440739862,49.22722408866359,4.781086661201488,101.0,1
11.748788833618164,818.3751702308655,53.122811019420624,0.8039654888344803,794.405772597557,9.818562546439336,0.7113754991341255,49.49535290018001,5.3050156349900925,101.0,1
11.865504741668701,818.6823725700378,54.15502190589905,0.8490766221379065,801.8742977628704,11.601910255352944,0.7695560379092867,45.752362669781114,4.5561938607144885,101.0,1
12.023802042007446,819.7270631790161,55.216699838638306,0.9138674566381253,804.6287800345011,12.25931752137545,0.8158538664936406,45.533447590353106,5.615765050204017,101.0,1
12.148793935775757,819.8686242103577,56.050270795822144,0.9655678402490111,820.7241144528333,15.387266760332933,0.8747490658239732,40.672002172811496,5.203532475105334,101.0,1
12.282129049301147,821.1973905563354,57.03883245587349,1.021670611554454,812.2932016065911,9.1479516592058,0.9445615828611692,48.71161098068286,4.418021906478387,101.0,1
12.423815965652466,821.4197754859924,58.1229031085968,1.0815812796503554,806.6005941944874,6.162024903010185,0.9944906447889069,54.03277707138788,4.9899258126759145,101.0,1
12.540459632873535,821.5070366859436,59.134431183338165,1.1295725540696198,804.9952407090011,10.86157919485626,1.045373544985717,51.01869897876714,4.824247859691302,101.0,1
12.665485620498657,821.2369680404663,59.80108678340912,1.183058131828182,804.3498237650339,15.13462333527512,1.1065666261386122,47.75215805325201,4.382640444613277,101.0,1
12.90710997581482,837.5847935676575,99.3998721241951,1.212762979348417,824.0364754061393,51.74218266614361,1.151272607917847,49.54606230050775,3.5231387636634697,101.0,1
13.22374153137207,855.6911945343018,147.0196098089218,1.2318323611183426,843.456614926657,104.33332596783677,1.1870708201946736,44.40499708746161,2.5646473794283517,101.0,1
13.540469646453857,872.754156589508,197.0345973968506,1.2498363989592765,859.2207466134339,158.01088080998818,1.209288431442007,41.303796942076204,2.3232274065730985,101.0,1
13.865477800369263,891.355037689209,253.93003225326538,1.270999145236848,878.9411020226514,204.52382830165325,1.212161806106932,50.94191582225509,3.3711312099241284,101.0,1
14.19870114326477,907.5940251350403,305.97060918807983,1.2874462092659058,894.5747893140764,264.7459116076377,1.241306583274505,43.231657289083664,2.6436058376193863,101.0,1
14.515014410018921,921.5335249900818,358.56473445892334,1.3075849180901244,909.1453889777526,316.48063514938656,1.252710793398292,43.86954898964566,3.144055749316622,101.0,1
14.840118408203125,936.949610710144,413.67107629776,1.321447606425479,922.2445485562129,358.286962378457,1.2525743115728267,57.303044662367725,3.946149116217071,101.0,1
15.15675139427185,948.3530521392822,465.4003381729126,1.3587244983071685,937.7946880429616,426.6963829019914,1.2924205136655844,40.11826524170681,3.798938484862996,101.0,1
15.456648826599121,959.7898721694946,514.9981379508972,1.3741433311105036,956.7829850399397,477.88407304670574,1.315044165600309,37.23567085366424,3.3861327564792734,101.0,1
15.75674057006836,970.3052043914795,568.3026313781738,1.3891593477556947,968.4216525972673,533.6219993945859,1.3419192956108887,34.73174343655295,2.706655611875315,144.0,1
16.056726694107056,979.3424606323242,618.5063123703003,1.4018884868313473,973.5678851662219,583.6271120051955,1.3546503866833068,35.35398619565886,2.7065437706990254,101.0,1
16.356736183166504,990.4651045799255,669.2277789115906,1.4248252491302014,983.2434121989592,637.2567079986894,1.3769824409818414,32.77654979040751,2.7411909869551296,101.0,1
16.65650963783264,996.5342283248901,724.3356108665466,1.4349558438773466,989.3124957118252,686.2809703091991,1.3869524138280367,38.73382358977129,2.750393943976934,101.0,1
16.956538915634155,1004.7850608825684,776.7775058746338,1.4481502886109798,990.8996572462186,743.7954704469898,1.3936814082739308,35.78573871103846,3.120836958116024,101.0,1
17.25649666786194,1011.8808746337891,831.6406011581421,1.4603584981253646,1001.7173636454113,797.9445403469141,1.3998447591718826,35.19547513253445,3.4671818445909257,101.0,1
17.54813051223755,1016.8637037277222,880.5031776428223,1.470219472624919,1008.1091518648722,854.2280392725714,1.4034300499500056,27.69521754193597,3.826752035387892,101.0,1
17.931509017944336,1020.2851295471191,910.4693531990051,1.5648272007543746,1008.2193432036621,883.4754068302639,1.4736256944111787,29.567826106165363,5.225461398700732,106.0,1
18.048089504241943,1020.1311111450195,912.8440022468567,1.613279507816722,1001.1980625162755,891.538461755791,1.5262607043995098,28.502392636317847,4.9858101740848415,106.0,1
18.448084115982056,1020.5836296081543,920.6647276878357,1.7835731789132525,997.2089943138956,921.1598609733342,1.702167383759185,23.379878787325097,4.664208490234593,119.0,1
18.573078870773315,1020.1108455657959,922.7942228317261,1.8349154288283642,986.3585963955604,913.9883421209086,1.7454560091444582,34.88205640645071,5.125647185577376,106.0,1
18.73141312599182,1018.1878805160522,925.2682328224182,1.9012833621820266,988.2145654202566,917.5923070367268,1.7983377062472312,30.940579414408116,5.898351604269674,101.0,1
18.847952842712402,1016.8322324752808,926.9993305206299,1.9483870467053996,991.2371862996172,919.6437977457431,1.8582581756735503,26.63100169232815,5.16400392240387,132.0,1
18.989600658416748,1013.8876438140869,934.6421957015991,2.009997924240793,991.1280703527862,925.2840033176758,1.927539291203582,24.608412155904457,4.724531657450208,119.0,1
19.50618076324463,1009.3798637390137,939.2345547676086,2.230305101367528,985.2721512344214,932.3261243542986,2.168835903668482,25.07804244712142,3.5219255982106206,144.0,1
19.664551734924316,1007.6485872268677,940.2240514755249,2.3037969032353005,983.981803352698,936.2034510869865,2.2211109565310045,24.00587191565793,4.737555771199817,119.0,1
19.76458764076233,1006.5481662750244,941.5157437324524,2.348899440909709,981.7311063538504,932.1906848881735,2.27118246191126,26.511189818271248,4.452854893117989,119.0,1
20.006184816360474,1003.9114952087402,943.2551860809326,2.458175388654583,980.0361335234569,937.8334844202585,2.3885791516890023,24.483213524789836,3.9875706481201414,106.0,1
20.122857332229614,1002.666711807251,943.8022971153259,2.5107207737310406,978.454327485427,944.5627959891517,2.4450043760534035,24.224324822062563,3.765272231731934,106.0,1
20.222846508026123,1001.5444755554199,943.8834190368652,2.5576499381953233,978.0405954251879,942.343892971741,2.494565099587317,23.55424636199409,3.6144950035026997,106.0,1
20.364481925964355,1000.1050233840942,944.3734884262085,2.623121967487319,973.8855663624943,939.8739771231822,2.5510839910149925,26.602735356981423,4.127472016527029,106.0,1
20.48114252090454,998.7248182296753,945.1616406440735,2.6763161839220206,965.3506304772097,940.7056506198098,2.602614791962419,33.67034682377298,4.222778703524583,119.0,1
20.606090545654297,997.6394772529602,945.2707767486572,2.734262596618663,962.1636812563312,939.0664756458567,2.6577124486247206,36.01423959725724,4.386000401154754,101.0,1
20.739447116851807,994.3807125091553,946.1621642112732,2.7811421699771763,955.3881923466134,946.6723312825376,2.7273591654136773,38.995857460335884,3.081539171021342,132.0,1
21.064465045928955,935.3046417236328,971.0501432418823,2.813625456472537,902.4097868657027,970.179430586083,2.7777436209719437,32.906376534848945,2.055877735366691,101.0,1
21.38109517097473,884.6558928489685,988.2010221481323,2.845361060480362,843.1307752953601,992.8651290597619,2.803916181041425,41.78623315308655,2.3746166742796158,101.0,1
21.697794675827026,833.3611488342285,1005.2642822265625,2.8783129445777718,790.9083713491439,1008.297516479979,2.8483653483609164,42.56100123627509,1.7158708697877647,101.0,1
22.022642850875854,775.8806347846985,1021.1790800094604,2.9116933823497777,740.6264619816272,1025.2926569451013,2.8800157481299133,35.493354522138986,1.8149947457574198,101.0,1
22.322678804397583,721.9519019126892,1033.2481861114502,2.932047849387645,681.2159925107024,1047.1990734149167,2.904587318927833,43.058583016175724,1.573372498537676,101.0,1
22.62267756462097,671.3776588439941,1039.0962362289429,2.9519587275825794,623.3264718980186,1058.9775471539435,2.917468553191302,52.00176046071561,1.9761414272903841,101.0,1
22.914288759231567,622.9168772697449,1050.540566444397,2.980446339846477,570.5072669982115,1063.4903984288392,2.950972875678415,53.98578884520715,1.6887051044600165,101.0,1
23.214163541793823,569.24968957901,1060.701847076416,3.003863948232917,503.39226924566793,1086.5751385601814,2.962049531807802,70.75752274611077,2.3957895839615886,101.0,1
23.514135599136353,515.7264471054077,1068.608045578003,3.0281667130173098,446.6811378358548,1096.6104591959747,2.985852546237079,74.50764994656708,2.4244231701198906,101.0,1
23.81414008140564,460.04945039749146,1074.6066570281982,3.04874294429878,388.42052767620424,1107.1445031561866,3.0151639381612774,78.67282886016483,1.9239353319227832,101.0,1
24.097551107406616,409.0713560581207,1079.0934562683105,3.0673157785747014,332.5601767897906,1113.0672780107095,3.029917509403271,83.71487990085664,2.142762984617187,101.0,1
24.355839490890503,363.6645972728729,1082.4812650680542,3.0811262311692804,270.74900527569116,1113.9408701754587,3.0444257033017457,98.0969621838545,2.1027853527120044,101.0,1
24.672468900680542,306.44217133522034,1088.3240699768066,3.1068444913220965,220.5488343582979,1125.094661602812,3.0775963558076884,93.43308699576188,1.6757947236022779,101.0,1
24.930882215499878,259.48071479797363,1090.4558897018433,3.1204430815405875,176.66319150339388,1130.539144663066,3.0776020635567902,92.00765996880179,2.4546095205156417,101.0,1
25.214134216308594,207.38758146762848,1091.722846031189,3.1337566893130537,124.33152955016337,1126.5022341012286,3.0908671721750576,90.04395368176075,2.4573883173611937,101.0,1
25.48912024497986,157.56745636463165,1093.0253267288208,-3.1336882914763082,84.55292204405383,1129.1800048686819,3.105989600635962,81.47565877885116,2.492791260881084,101.0,1
25.914164066314697,115.73611199855804,1092.092514038086,-3.0461935912792475,59.60549229483348,1131.1732203123536,-3.121122526404961,68.39552669012598,4.293111746112938,101.0,1
26.005807399749756,111.61962896585464,1092.0685529708862,-3.0052034476583236,51.663899189658544,1135.5182587490033,-3.0648047516728467,74.0443547152731,3.414903173508305,101.0,1
26.1722252368927,108.28180611133575,1090.7487869262695,-2.931663514616886,53.125667471548724,1131.3449196144707,-2.997833533257837,68.48536791818701,3.7912627984284795,101.0,1
26.2722225189209,106.60681873559952,1090.1371240615845,-2.8874559660972445,45.09769166904458,1121.5994619762837,-2.944648055075851,69.08872136281234,3.2768653200108173,101.0,1
26.388885736465454,104.18062657117844,1089.5500183105469,-2.8367609920378354,46.749192048668085,1117.4165083843811,-2.8917932744189585,63.83502910117999,3.153117517410515,101.0,1
26.50553274154663,102.52542048692703,1088.6677503585815,-2.7828553156494893,52.8282177083222,1100.29350669715,-2.831009638040321,51.03890843720633,2.759039438306972,101.0,1
26.647236585617065,99.20024871826172,1088.1094932556152,-2.7182702387545636,35.96646704114193,1092.6892456328096,-2.7785995282776095,63.399410699359564,3.4566136706933417,101.0,1
26.78885817527771,98.26451539993286,1085.9453678131104,-2.6516316769227584,25.081838111100797,1087.6052890294297,-2.7203972158724605,73.20149994095561,3.9399751577604096,101.0,1
26.88886070251465,96.21895104646683,1084.7865343093872,-2.6106922295596253,17.866299609503013,1084.596769761852,-2.6617496706396544,78.35288123474368,2.9253758866235375,101.0,1
27.047175884246826,94.47214007377625,1083.0315351486206,-2.5364466010491173,7.971715278418236,1076.1941824282396,-2.6012457195947394,86.77023039038383,3.712716008832043,101.0,1
27.16391158103943,92.59511530399323,1081.6314220428467,-2.486346488041391,11.015205869302592,1075.9601542369683,-2.547277508065154,81.77679928866328,3.491090288788738,101.0,1
27.288865089416504,91.4313793182373,1080.256700515747,-2.425976679171459,7.792957479422622,1074.2143754380818,-2.4937498248749987,83.85639689392632,3.8831152131380158,101.0,1
27.38890504837036,90.00810980796814,1078.9114236831665,-2.3813503113255323,0.6651826906387895,1067.3256541279102,-2.4363794733214474,90.0910022259711,3.152938732507642,101.0,1
27.530613899230957,88.81577849388123,1076.9336223602295,-2.314019404029432,-1.332470311823212,1064.461519072883,-2.378878658800712,91.00692349016877,3.716161560758083,101.0,1
27.622108936309814,87.3834490776062,1075.7838487625122,-2.271926033154368,1.4752725201985812,1067.133041677245,-2.3336092665436783,86.34263872876035,3.5341889399279305,101.0,1
27.74713110923767,86.18664741516113,1073.8556385040283,-2.212794853081578,-1.755234286055317,1066.5754191941883,-2.2735581420983793,88.24271159903302,3.4814800099963428,101.0,1
27.847134828567505,85.25070548057556,1072.2076892852783,-2.169097294222336,2.412270093657116,1065.9179617883574,-2.216923134806818,83.07687433539003,2.740218817156306,101.0,1
27.963806867599487,84.15819704532623,1070.4505443572998,-2.11342736001667,0.8481146543629307,1062.2952193385672,-2.1785689163344633,83.70829800055822,3.7323362479233184,101.0,1
28.063801527023315,83.90511572360992,1069.2580938339233,-2.066310024306244,0.4531461336043631,1065.1504381991406,-2.1241527161932274,83.55300152158016,3.3141421207997457,101.0,1
28.205399751663208,82.75192230939865,1066.5401220321655,-1.998631520208928,-1.1434170695449284,1059.22217984882,-2.062971804476777,84.2138958088682,3.6864267412197087,101.0,1
28.305404663085938,81.13539218902588,1062.5288486480713,-1.9497753675943696,5.5402829351689595,1058.2338745947395,-2.0148474256198172,75.71702150257468,3.7283542890885433,101.0,1
28.422026872634888,81.86071366071701,1062.8116130828857,-1.9013585590846145,9.574737121586907,1060.5378576061844,-1.9522411900784686,72.32172818858449,2.9153600064693963,101.0,1
28.54702663421631,80.69704473018646,1060.776710510254,-1.840580630457558,8.460214273083379,1054.1377288440838,-1.8874429219085138,72.54126930273553,2.6850115184517644,119.0,1
28.663728952407837,80.512136220932,1056.0275316238403,-1.7819776345404963,11.428638336224699,1059.3372647652413,-1.8255489555088855,69.16273572852398,2.4964527992985697,106.0,1
28.822028875350952,78.0208557844162,1041.7157411575317,-1.7534196641482107,3.2371966981697633,1032.3795836206539,-1.7723503104976495,75.36417918269481,1.0846461392775795,106.0,1
29.122079849243164,67.22331792116165,979.5598983764648,-1.708319708532548,-2.322571816888564,985.2649860614847,-1.7342447801512748,69.77950132346035,1.4853971873274334,106.0,1
29.422008275985718,58.99064987897873,927.4226427078247,-1.6711461009682649,-5.213470540161233,940.6152243343518,-1.7033745888042071,65.54550548106258,1.8465563330882018,101.0,1
29.72190761566162,53.83676663041115,874.458909034729,-1.6410450253720776,-12.63262105719377,896.1190573263895,-1.6647362783284543,69.90952384033126,1.3574088057772158,101.0,1
30.02186417579651,50.41227489709854,821.874737739563,-1.6144565045526187,-15.017880647241793,836.8384028107796,-1.6438111727812619,67.1194198940971,1.681898598508023,101.0,1
30.32190990447998,48.336174339056015,766.7523622512817,-1.5898058790002614,-19.14824491259045,775.2536344243555,-1.6244962190787644,68.01778054518297,1.9876100763717521,101.0,1
30.621851444244385,47.49000817537308,715.1907682418823,-1.5622858377287563,-24.790659429031237,719.0106432041028,-1.596407570190595,72.38153323925503,1.9550312597378998,101.0,1
30.89673614501953,47.35932871699333,666.2994027137756,-1.5319290302985802,-27.43716413260449,668.3868563943819,-1.572653540012759,74.82561597119408,2.3333425293619703,101.0,1
31.19674324989319,48.501212149858475,617.9060339927673,-1.517915915531595,-24.814668261063627,616.0523089144455,-1.5544518959882099,73.33931153954632,2.093357480536485,101.0,1
