time_stamp[s],x_true_pose[mm],y_true_pose[mm],theta_true[rad],x_pose[mm],y_pose[mm],theta[rad],p_err[mm],a_err[mm],num_particles,valid_pose
0.17479944229125977,5.868942476809025,8.484244346618652,0.036130188670878735,-2959.92046947059,-31.586704997414838,0.013733225969292913,2966.0601000317965,1.2832514367127899,1000.0,1
5.208055734634399,55.94928935170174,11.391330510377884,0.0605257753560111,-2847.9931273496613,-58.33269724483362,0.033381394086917295,2904.7793374994535,1.5552584842130406,1000.0,1
5.408036947250366,87.97574788331985,12.742513790726662,0.11593455352952498,-2760.1116693936046,-65.48281574777525,0.08333131162809687,2849.161479915196,1.8680281593959116,1000.0,1
5.633044481277466,122.5375160574913,16.723403707146645,0.19203703247644577,-2697.589572956511,-48.65649302173812,0.13230095695389926,2820.8848486045777,3.4226250121166584,1000.0,1
5.749687194824219,141.49980247020721,20.542630925774574,0.24155064856194214,-2639.3092309877334,-61.56876286943164,0.1774904044018712,2782.021056992969,3.6703816249496444,1000.0,1
5.908015966415405,162.99152374267578,26.135507971048355,0.3154997952365116,-2575.7010700895603,-56.068546225932636,0.235831520779369,2739.9260263806323,4.5646558874841725,1000.0,1
6.0080952644348145,177.93872952461243,31.351253390312195,0.36710932836701615,-2523.730345860726,-85.3660267703736,0.2830959553411213,2704.189105144383,4.813611697042009,1000.0,1
6.124694585800171,194.41445171833038,38.09502348303795,0.4353333986424769,-2480.900450548774,-76.77513588895424,0.3377204307077154,2677.7798602212606,5.592811088407669,1000.0,1
6.2246904373168945,208.9182287454605,45.07526010274887,0.4966851335932558,-2437.933160137211,-58.58401288165319,0.40062574598263706,2648.880427596871,5.503797492699721,1000.0,1
6.324601173400879,222.72461652755737,53.3440001308918,0.5620832459513272,-2429.322297989229,-67.89733717972815,0.4684840957702717,2654.816810755664,5.362836271385634,1000.0,1
6.407963752746582,233.9656949043274,60.823116451501846,0.6170309722568567,-2424.4626370805463,-56.95535727138905,0.5125757227006472,2661.0360698743584,5.984844947556567,1000.0,1
6.507925748825073,246.48424983024597,70.77522575855255,0.6871609736169584,-2421.1509695577615,-33.202044576108456,0.5664323925289422,2669.6608279827515,6.917238162946257,1000.0,1
6.59134578704834,256.635844707489,79.21714335680008,0.7496361015239283,-2409.381059426687,-39.70295868094477,0.6179456719307584,2668.667855653424,7.545305817953354,1000.0,1
6.649596691131592,263.4185552597046,85.28943359851837,0.7944452606639075,-2410.9795813998526,-40.56216099845157,0.6794807416347419,2677.35765582985,6.586981734122629,1000.0,1
6.7246034145355225,271.9394266605377,92.91587769985199,0.852603720432126,-2406.938865770687,-32.22467136545062,0.7329194265742491,2681.7995940561254,6.857404912059863,1000.0,1
6.8079187870025635,279.10080552101135,104.84923422336578,0.9138465315314437,-2393.1082191311775,-43.68568758368321,0.788511998232305,2676.334002778582,7.181139785282524,1000.0,1
6.882937431335449,287.2667908668518,114.30592834949493,0.9758327709574471,-2368.0623813958573,-32.27082070449204,0.8366029201921401,2659.371684521101,7.977282831088387,1000.0,1
6.966279029846191,293.68674755096436,126.20188295841217,1.0415291590459794,-2361.2664800330936,-26.144544907219696,0.897532260379478,2659.3206039780957,8.250414556563527,1000.0,1
7.0246264934539795,298.08181524276733,134.84996557235718,1.0893399690698797,-2359.99262839778,-11.25929687635661,0.9515193512402143,2662.087088077382,7.896539731525294,1000.0,1
7.107976675033569,304.45152521133423,145.87987959384918,1.158578789309138,-2351.7095262088956,-9.973554530026338,1.0135802853453735,2660.729566117163,8.307802312834642,1000.0,1
7.1829705238342285,308.0882728099823,157.64158964157104,1.2198324550158333,-2345.7382375260695,2.2023447553064326,1.0802905961150928,2658.3747865591185,7.995159580422468,1000.0,1
7.266338109970093,312.8492832183838,169.63326930999756,1.2902686702217947,-2332.209672400985,25.378707823513135,1.1373524891830586,2648.989667252759,8.761451792778,1000.0,1
7.324553966522217,314.8389756679535,178.62990498542786,1.338060577508197,-2328.970624648015,34.384806123838096,1.1984157320860513,2647.7416511564097,8.001060273445725,1000.0,1
7.40789794921875,317.89255142211914,191.68242812156677,1.4096057430161741,-2314.9165400990505,53.23909532998728,1.2544216440854747,2636.44652302886,8.891393916269706,1000.0,1
7.482921600341797,319.5038437843323,204.49960231781006,1.4719581094621972,-2312.0661715391648,68.94341716044445,1.3161799090070765,2635.0590552934727,8.925433426221336,1000.0,1
7.5662171840667725,320.61684131622314,218.4954583644867,1.5433460841822455,-2305.2169777287972,78.46290986135226,1.383217257495689,2629.565051463994,9.174705947521518,1000.0,1
7.6245033740997314,320.2894926071167,228.47385704517365,1.590226112479007,-2302.546710104447,97.53234211429313,1.4479044700759987,2626.1027067856294,8.15442944306251,1000.0,1
7.707857608795166,319.3611204624176,243.43188107013702,1.6618620602935659,-2305.992810715235,108.32714472882935,1.5181802378285802,2628.8279810082304,8.232362019991653,1000.0,1
7.782864093780518,319.9460208415985,249.09386038780212,1.7174876481746661,-2321.257068981572,103.19132371622781,1.5872580990469711,2645.2299166421553,7.461603532908536,1000.0,1
7.866281032562256,316.8518841266632,259.92903113365173,1.793130416118758,-2305.975774882787,119.09191452314509,1.6421705900204644,2626.606179517621,8.649360911461082,1000.0,1
7.94127082824707,313.9805793762207,275.3329873085022,1.8595076707440468,-2319.004184024232,127.94239278830544,1.7135288307983334,2637.1068904486892,8.363971427105128,1000.0,1
7.999576807022095,311.3477826118469,285.34936904907227,1.8977266880173072,-2308.0938890657653,145.01295387239963,1.7742950264713386,2623.198235121746,7.072113264871215,1000.0,1
8.082944393157959,306.2678873538971,298.16240072250366,1.9581215493814967,-2314.1459733864235,154.68654930630143,1.826820072761039,2624.3387970114672,7.523020454187876,1000.0,1
8.166276216506958,302.8102517127991,309.89402532577515,2.026297694662996,-2321.070421191149,162.92692492865976,1.8764251869869004,2627.9933626700827,8.587062154882313,1000.0,1
8.241262435913086,294.87544298171997,321.34413719177246,2.08179391120469,-2322.967759024677,177.6490517971743,1.9420875123114363,2621.7839933636155,8.004587027554601,1000.0,1
8.299555540084839,290.5699610710144,330.2493393421173,2.1240795177168628,-2309.8578368484254,191.84623950923387,1.992898710799182,2604.108321524951,7.516106589503661,1000.0,1
8.382856607437134,282.67166018486023,342.24045276641846,2.1785783200840383,-2308.4564683701647,208.5060159247013,2.0486592600020415,2594.5770133465758,7.443813821004985,1000.0,1
8.482860326766968,272.91762828826904,355.6472659111023,2.2462786308479736,-2293.6867430188177,226.9385454909737,2.110533742987429,2569.829553399375,7.777609164885843,1000.0,1
8.582928657531738,266.10809564590454,368.5276210308075,2.3144744527677887,-2287.4762267978717,244.21342432824343,2.1797112968549004,2556.6084783033252,7.721360067671987,1000.0,1
8.657987117767334,256.93225860595703,377.29671597480774,2.3595361912880626,-2292.7962786677804,257.5509399536959,2.233561920270729,2552.5388664353322,7.21779405653043,1000.0,1
8.75797724723816,244.63677406311035,389.8520767688751,2.4166573180345705,-2302.526637210648,277.11424248475873,2.295306019621773,2549.6570873375977,6.952917237485893,1000.0,1
8.857975959777832,231.41244053840637,400.33164620399475,2.467433474166419,-2298.140760790237,295.3490367028171,2.355532502237626,2531.7307808393975,6.4114534149317315,1000.0,1
8.98287582397461,216.001957654953,412.84066438674927,2.5283076305895675,-2345.9022735084814,319.34034584120616,2.4203013970026634,2563.609876564924,6.188301345633723,1000.0,1
9.082856893539429,201.69275999069214,422.2542643547058,2.571705720458661,-2346.665381948806,334.43602229292765,2.4694969405397367,2549.870832655676,5.856131718535837,1000.0,1
9.241232872009277,178.02506685256958,436.73959374427795,2.62887888278669,-2353.1558914465027,351.3952938513109,2.5331608737170694,2532.6193344401427,5.484237943084182,1000.0,1
9.382853507995605,154.79731559753418,449.41848516464233,2.6743171599453923,-2359.0455928712463,367.5518632354512,2.578199351736711,2515.1756026657213,5.50714474640534,1000.0,1
9.557822704315186,125.71492791175842,464.7059738636017,2.7162736319003553,-2371.8509713918156,386.46773412142403,2.629677152070272,2498.791036385801,4.9616128149535355,1000.0,1
9.874475240707397,75.79092681407928,486.1491024494171,2.7450530388725856,-2445.225743773915,413.13399020767804,2.6816804296418493,2522.0738014574927,3.6309830456529917,1000.0,1
10.216162204742432,19.097207114100456,509.5067620277405,2.7331223681578396,-2509.4745343708473,431.70919150196437,2.6918201008091263,2529.7682727506754,2.3664456034022585,1000.0,1
10.53279185295105,-29.411548748612404,535.0672006607056,2.682097335705724,-2578.4253633743488,462.09407307971543,2.651810744318965,2550.0581374748695,1.735293862298558,1000.0,1
10.732794284820557,-59.79480594396591,551.2545108795166,2.620803980831781,-2611.278121612276,475.1746186108548,2.605923728334671,2552.61733523483,0.8525756661734137,1000.0,1
10.89943528175354,-85.62834560871124,565.3302669525146,2.5458483067056443,-2636.734197750956,486.3621862528343,2.5485599310393865,2552.327766295661,0.15536462994840006,1000.0,1
11.016157150268555,-103.93372178077698,577.1992206573486,2.486201797862702,-2646.4630917420545,496.8326548102856,2.484064214219528,2543.7992023785487,0.12247452111007263,1000.0,1
11.116135120391846,-117.9303228855133,588.729202747345,2.4456403562433238,-2661.464610749019,506.0143784261769,2.434704643952098,2544.8788607121937,0.6265701602565844,1000.0,1
11.257814884185791,-128.45028936862946,597.2785949707031,2.365117794198793,-2684.1321208355794,522.6472417116734,2.3740003770807516,2556.771296494768,0.5089345103113755,1000.0,1
11.332804203033447,-139.01257514953613,605.6361198425293,2.313240922333505,-2683.0658492332273,532.499520671081,2.3126447802896637,2545.1043246818613,0.03415642310241492,1000.0,1
11.432836055755615,-152.50706672668457,621.2425231933594,2.2560013211147276,-2692.837125409808,548.4044858818711,2.2450396510237534,2541.3740745369205,0.6280574326276104,1000.0,1
11.532811880111694,-164.864644408226,631.3802003860474,2.1900715581213808,-2695.2486864448024,563.4927359617238,2.1783597884067163,2531.2945518092765,0.6710349752794109,1000.0,1
11.632802248001099,-173.34941029548645,645.6732749938965,2.1145908470683166,-2715.302214893624,573.7458906870008,2.1135811378579996,2542.9702336868922,0.05785207628664877,1000.0,1
11.716125249862671,-182.17717111110687,658.5667133331299,2.05676969788989,-2716.2520130403655,585.908072646921,2.0578019316363516,2535.1162858072535,0.059142637143230405,1000.0,1
11.79110860824585,-188.48679959774017,670.4193353652954,2.0060655948731294,-2731.5781010340256,602.4508937129274,1.9987001257050263,2543.9994254129756,0.42201029746604113,1000.0,1
11.891139030456543,-196.17554545402527,685.6562495231628,1.9309678167689799,-2743.6867682585817,624.0662343556329,1.9283524835720502,2548.2556308744815,0.14984755420452517,1000.0,1
11.957850456237793,-199.40754771232605,697.0983147621155,1.8846809501652508,-2758.235211511002,633.4921103047994,1.8649039155843132,2559.6180891427643,1.1331406127720054,1000.0,1
12.032831192016602,-201.72101259231567,710.6168866157532,1.8269593558851498,-2775.924640014163,645.9576183425266,1.8117667764481153,2575.015560420058,0.8704706816593141,1000.0,1
12.116156339645386,-206.1622440814972,725.2452969551086,1.7653553517427314,-2781.3908342123277,656.6592432643334,1.7489157140614668,2576.141754288397,0.9419218558606937,1000.0,1
12.191232442855835,-207.80417323112488,738.4588122367859,1.7058325258794649,-2779.670048899293,669.4433422489509,1.688578010719211,2572.791716700758,0.9886108962270432,1000.0,1
12.274557113647461,-209.4842493534088,752.8831958770752,1.6415553102846132,-2764.3897087411624,684.0447745216084,1.6225091455941225,2555.832669535324,1.0912648526762088,1000.0,1
12.33288836479187,-210.06834506988525,763.6071443557739,1.5960264367309231,-2756.817326601594,698.3412668483332,1.5676349899996267,2547.5851329640805,1.6267100719737835,1000.0,1
12.416193723678589,-210.14568209648132,778.2686948776245,1.5321735250875326,-2760.895879256238,709.8875410044942,1.4998828124035357,2551.6666221345527,1.8501215542625746,1000.0,1
12.491113424301147,-209.48250591754913,791.2462949752808,1.4717270405303433,-2761.0666447574263,726.8200221428821,1.4351377004918704,2552.397375451227,2.0964147593735394,1000.0,1
12.57450556755066,-207.80271291732788,805.8713674545288,1.4051577462237057,-2734.0461515584147,743.2682418513097,1.3755912067908216,2527.0190071727666,1.6940379243113826,1000.0,1
12.632826089859009,-205.84487915039062,816.5284395217896,1.3600202033124318,-2716.2257718655246,756.6023591438013,1.3144170020214536,2511.096047868082,2.6128709662585963,1000.0,1
12.707797765731812,-202.92583107948303,829.5191526412964,1.3001147910901627,-2707.6025533658394,770.5728028881268,1.2569244534246842,2505.37026311728,2.4746240639768327,1000.0,1
12.791086435317993,-198.1065273284912,844.1190719604492,1.2357301909786265,-2704.0917709935356,786.595434707427,1.2027579217628475,2506.645369873802,1.8891718670332656,1000.0,1
12.874462842941284,-192.43860244750977,858.5937023162842,1.1685118461756785,-2690.6796998776435,801.4999032780997,1.1402467101707683,2498.8934116479504,1.6194730004446198,1000.0,1
12.932783603668213,-191.0843849182129,863.8322949409485,1.1285563978620807,-2673.3806132454997,814.6280400550071,1.0803553043011451,2482.7838455787396,2.7617192289568187,1000.0,1
13.032781839370728,-182.20210075378418,881.6061019897461,1.0473172973355955,-2673.7913936790837,830.8083216399183,1.0083916720022457,2492.1070641343767,2.2302740465084656,1000.0,1
13.10775899887085,-175.71331560611725,894.3401575088501,0.9958514567640593,-2648.593405896107,841.752836142072,0.9447758552443123,2473.4391780112887,2.9264164031734756,1000.0,1
13.216060638427734,-162.9694551229477,908.9851379394531,0.9290556890323332,-2639.677647872234,854.6524031784229,0.886553592797646,2477.3040826870747,2.4351907347064414,1000.0,1
13.316065311431885,-151.7234742641449,924.0520000457764,0.8609395470896013,-2613.8648307543804,869.3722434722225,0.8164126647271757,2462.748451449827,2.551202434242494,1000.0,1
13.40773057937622,-139.80677723884583,937.5599026679993,0.7988192507861546,-2594.0521068383837,885.0717087806611,0.7580539910446206,2454.806539904662,2.335677333944463,1000.0,1
13.507735013961792,-126.53061747550964,949.7808218002319,0.7415671435316158,-2579.3148259939803,900.1102559041685,0.6932964255978272,2453.2870885149205,2.765708411672538,1000.0,1
13.607745170593262,-112.99747228622437,962.1961712837219,0.6808635149092289,-2548.9345505073993,914.815708673183,0.630320761141279,2436.3978241021937,2.8958864758724694,1000.0,1
13.707724571228027,-98.55519235134125,973.5182523727417,0.6248006967875541,-2539.357706528389,923.5158942054202,0.5797220304120914,2441.314635403493,2.5828173293923125,1000.0,1
13.807723999023438,-83.03865790367126,983.8001728057861,0.5736501124519685,-2546.006106988156,934.8590455527204,0.521956673251349,2463.453650707992,2.961815894711623,1000.0,1
13.94944167137146,-60.26628613471985,997.7238774299622,0.5081590712809979,-2537.9100714735214,944.5584339949814,0.46037364147785514,2478.2141334847606,2.7379034499387407,1000.0,1
14.06609058380127,-39.60995376110077,1008.5304975509644,0.45938157515292505,-2532.545392337973,952.064635299883,0.4084129191447034,2493.574842372336,2.920288876725206,1000.0,1
14.207804918289185,-18.166983500123024,1018.9322233200073,0.4113495449034757,-2490.3809786196484,963.9809584591391,0.36031665316225053,2472.8246357505122,2.923969313120237,1000.0,1
14.366047382354736,9.204668924212456,1031.1448574066162,0.37149008051531546,-2442.9984265921385,975.8334709780714,0.3126370230379258,2452.826812298133,3.3720318048952795,1000.0,1
14.6493661403656,59.33631584048271,1050.3284931182861,0.325761711141513,-2381.876040064109,993.1932005292023,0.25843041738884787,2441.8808751207516,3.8577989611832773,1000.0,1
14.949371814727783,113.20237070322037,1067.4078464508057,0.3275199480906476,-2309.377234130107,1010.1336118111333,0.2556695989657473,2423.256544344399,4.116721761398274,1000.0,1
15.249351739883423,167.21811890602112,1086.3368511199951,0.28470680447015123,-2253.546722220279,1026.234080282311,0.22883516997475153,2421.5108422420103,3.201208851083946,1000.0,1
15.466012954711914,205.3547352552414,1096.947431564331,0.22448956435777012,-2221.431464041324,1031.2948339826387,0.17616595367180357,2427.674096880694,2.768738943139168,1000.0,1
15.624345541000366,234.9478006362915,1102.976679801941,0.1661449939985183,-2191.0994049978426,1036.3600540146128,0.12161596313426981,2426.961643453905,2.5513255343292185,1000.0,1
15.76601266860962,260.17194986343384,1106.7748069763184,0.1099842523824707,-2154.5230416160716,1042.849152223237,0.05907787431661848,2415.5410141853977,2.9167206134706793,1000.0,1
15.907644748687744,281.26683831214905,1108.4355115890503,0.026248013172751772,-2110.181145135391,1049.930172008218,0.010672576430917716,2392.16352540849,0.8924067893800853,1000.0,1
16.007699489593506,303.09242010116577,1108.246088027954,-0.02429942822758927,-2047.4842350796844,1055.7012505295784,-0.05727976272810626,2351.1638760045894,1.8896339738093235,1000.0,1
16.124306440353394,324.000746011734,1108.0504655838013,-0.09403518629615122,-2033.8184799036046,1052.7459990274679,-0.11611761529597045,2358.4677411652433,1.2652299830869376,1000.0,1
16.224279165267944,342.4370586872101,1106.568455696106,-0.16214536421732642,-2002.0112080601486,1054.0554201380357,-0.17515858363022827,2345.0363098165917,0.7456025502369866,1000.0,1
16.307617664337158,358.19950699806213,1099.7843742370605,-0.20797627587186046,-2007.2378322885406,1052.3584335828425,-0.2176298810255706,2365.9127257653063,0.5531108323933313,1000.0,1
16.39925241470337,376.2321472167969,1097.2832441329956,-0.27415807353560434,-1998.838331881124,1051.6569357161197,-0.2703920623171917,2375.5086909338343,0.21577654841396485,1000.0,1
16.482640504837036,389.87237215042114,1091.6779041290283,-0.3312710138327508,-1988.9047132235337,1047.4340319210671,-0.32336116723396974,2379.188504958815,0.4532008267060648,1000.0,1
16.582642316818237,406.55258297920227,1085.0225687026978,-0.4057872961155729,-1967.5574069372751,1043.7830719259455,-0.38347127717973484,2374.4681384081814,1.278613700557548,1000.0,1
16.641007900238037,415.2223765850067,1079.268455505371,-0.44592222599674397,-1948.9646145592467,1037.4774682433772,-0.4326022464357573,2364.5563253414057,0.7631786120450561,1000.0,1
16.72430944442749,429.34587597846985,1074.3045806884766,-0.521577644629919,-1938.498830085199,1031.33386118957,-0.4847567769414533,2368.234581870638,2.109680316558705,1000.0,1
16.7992582321167,440.81762433052063,1066.0794973373413,-0.5821263603848712,-1943.9323076777823,1022.7088516339276,-0.5415451645042704,2385.1442830827523,2.3251312515521096,1000.0,1
16.882639169692993,454.57518100738525,1057.378649711609,-0.6505227633203234,-1950.395829716308,1014.590759241613,-0.6011454387666796,2405.3516096388516,2.8291123005714844,1000.0,1
16.9409658908844,462.0821475982666,1050.1834154129028,-0.6956686357052139,-1959.1762041417933,1006.1874858064905,-0.6630701264464562,2421.658036902181,1.8677569989449494,1000.0,1
17.024277925491333,474.5904803276062,1040.084719657898,-0.775311750340135,-1944.2808553126386,1000.6736111295837,-0.718324567119428,2419.1923804975604,3.2651250848852498,1000.0,1
17.099287271499634,485.3464961051941,1028.738260269165,-0.8402760712350205,-1933.7014609317341,991.6108086371786,-0.7831749865925571,2419.3328555842045,3.27165115563243,1000.0,1
