time_stamp[s],x_true_pose[mm],y_true_pose[mm],theta_true[rad],x_pose[mm],y_pose[mm],theta[rad],p_err[mm],a_err[mm],num_particles,valid_pose
6.016412019729614,179.08017337322235,31.76075965166092,0.37189571759228246,16.45134128631257,166.30833911343095,2.3532719162696383,211.07152381354908,113.52449381188698,1000.0,1
6.133052825927734,195.68252563476562,38.72773423790932,0.4409458505692766,-3.620821709877575,205.4424113133244,2.4081007926789657,259.8376566534178,112.70967583118697,1000.0,1
6.2414186000823975,211.34497225284576,46.5652234852314,0.5081510730276336,-15.302247661458157,249.7703455764526,2.457163281216361,304.40316019875837,111.67017374868702,1000.0,1
6.332968711853027,223.87172281742096,54.10127714276314,0.5678988355324573,-29.081417810930564,263.5490252812113,2.498424620362027,328.4107954285507,110.61097971191522,1000.0,1
6.4245874881744385,235.95531284809113,62.296971678733826,0.6287023055951012,-33.75811442816195,302.53908299492707,2.5469611315501566,361.1946911331406,109.908134740945,1000.0,1
6.516290664672852,247.47902154922485,71.49012386798859,0.693392153675402,-56.40086372056334,319.2225066476239,2.6143525934723444,392.064176059552,110.06292581195926,1000.0,1
6.599613428115845,257.6712965965271,80.11879026889801,0.7562436643572312,-67.07290367685877,332.22375193059764,2.6622742230437026,411.11519955560874,109.20750663569719,1000.0,1
6.6663079261779785,265.2760446071625,86.89180016517639,0.8068064193468231,-81.50224864283314,331.6967709167181,2.7127889441371864,424.48163490785225,109.20475449617663,1000.0,1
6.732978820800781,272.79624342918396,93.81866455078125,0.8584748529750215,-78.68544673442983,363.1381855697135,2.7541467771592187,442.80061305528665,108.61400059719827,1000.0,1
6.816255331039429,279.8214852809906,105.87675869464874,0.9200429866313645,-97.51093839216749,360.2746341805564,2.800706950339029,455.08025336945025,107.7541078027938,1000.0,1
6.89958381652832,289.10550475120544,116.33328348398209,0.9897146377504988,-112.54679853735851,375.8833036933257,2.847720874244808,478.21625414416775,106.45591566010982,1000.0,1
6.97462797164917,294.0797209739685,127.51099467277527,1.0479212926844337,-111.92276471541062,388.95820279649917,2.885212499717402,482.9002599105164,105.26903189948582,1000.0,1
7.033005714416504,298.84305596351624,135.89003682136536,1.0961167586585325,-133.75206725353007,410.79909874510054,2.922204459730793,512.5558827669033,104.6271182921876,1000.0,1
7.116280555725098,304.7385513782501,147.22789824008942,1.165175605649095,-137.9297773478137,408.40138201730616,2.969335724657726,513.971631401437,103.37076038501488,1000.0,1
7.19128155708313,308.7270259857178,158.7597131729126,1.2266491251724077,-138.42457504775757,407.5987607378723,3.0230836182502374,511.72788266796306,102.92811462508314,1000.0,1
7.274676322937012,313.11649084091187,170.95935344696045,1.2971952087225114,-150.31508052133668,393.2833527014344,3.0824866139191944,514.000760680163,102.28966271875007,1000.0,1
7.341281890869141,315.55503606796265,181.19096755981445,1.352237390182671,-155.3965356152254,405.42878073747147,3.1382319519925597,521.6109467117833,102.32995062502346,1000.0,1
7.416243076324463,317.9948031902313,193.1154429912567,1.4161629845150512,-162.64589657677055,398.0496487186672,-3.0967128744657706,522.5069482309665,101.43125981392285,1000.0,1
7.49958062171936,319.96485590934753,207.13232457637787,1.4865760255108305,-175.76115688115445,398.23773496220673,-3.039469915959709,531.2867000367174,100.67666967142287,1000.0,1
7.574548006057739,320.4512894153595,219.9893444776535,1.5498060414462718,-193.2810327266595,396.8764007685459,-2.9895071785011615,543.3322459570097,99.91651060907209,1000.0,1
7.641217231750488,320.3594386577606,231.23180866241455,1.6042618464079774,-211.69008544753342,388.2625851237583,-2.93647534353246,554.7390024657743,99.8349231383197,1000.0,1
7.716200351715088,319.0608620643616,244.31170523166656,1.6673342996057585,-222.15555245801136,376.60977644581425,-2.8707893985940163,557.1516732411711,99.98466518485195,1000.0,1
7.791203260421753,319.89383697509766,249.85525012016296,1.724571449533165,-229.99693571956985,368.570579289247,-2.8142282598371042,562.5595002081668,99.94593259787894,1000.0,1
7.874624013900757,316.4605498313904,261.28971576690674,1.8008409601612065,-237.86912707730838,368.7939165712923,-2.772507210638601,564.6578998759267,97.9664515692959,1000.0,1
7.949563264846802,313.5172128677368,276.98367834091187,1.8659791865746258,-262.93852606660886,344.4115830993031,-2.652148654244511,580.3858555223836,101.13034342050804,1000.0,1
8.091308116912842,305.8680593967438,299.3702292442322,1.9650663705359341,-267.8480934994181,341.12057475376344,-2.612355379495706,575.2332704600261,97.73305267179975,1000.0,1
8.174618005752563,302.1789491176605,311.129629611969,2.0328085389020343,-278.5923274279303,332.624325926231,-2.5606296609098864,581.1689062828788,96.81537769660642,1000.0,1
8.249565601348877,294.0404415130615,322.5892186164856,2.08771267247604,-292.5781233682222,329.1491635917593,-2.504133968220681,586.6552424903875,96.90656731675294,1000.0,1
8.31621265411377,289.0438139438629,332.96728134155273,2.135279684966016,-297.81310566250687,319.71857577847004,-2.4575542124464413,587.0064499551725,96.85000167364527,1000.0,1
8.391172885894775,281.9826304912567,343.28144788742065,2.1839253543263903,-310.77593831810844,312.42486351582994,-2.3999729937653056,593.5611591874995,97.36197093735595,1000.0,1
8.491168022155762,272.145539522171,356.6560745239258,2.2515429069400366,-326.6328800271635,305.9886395428405,-2.3533756367102936,600.9182845325656,96.15760244730656,1000.0,1
8.5912926197052,265.3609812259674,369.7177469730377,2.3202338799524562,-334.54336217433706,297.13791510354537,-2.2951030327374244,604.2789531538842,95.56067387193056,1000.0,1
8.674623489379883,254.7600269317627,378.85135412216187,2.3687899643211807,-342.5007269838808,278.1984631924806,-2.2302739219607397,605.6826005593896,96.4930496050116,1000.0,1
8.77462911605835,242.64445900917053,391.9910788536072,2.426520082188427,-359.2410787942626,273.4905140492293,-2.1854081915223107,613.4399599601289,95.75597449931917,1000.0,1
8.866292476654053,230.3762137889862,401.17040276527405,2.4714881529830053,-361.3827682566287,258.69911162212736,-2.135924693354281,608.6680225144554,96.0146894305158,1000.0,1
8.99121379852295,214.91631865501404,413.5498106479645,2.5322460383651015,-369.7560892376455,240.1710174186225,-2.081878311439979,609.8377083230122,95.6301486076238,1000.0,1
9.091203212738037,200.4442662000656,423.0763018131256,2.5753604235901792,-382.45469363977065,224.75950053821308,-2.039292521249151,615.7115810590833,95.59986234308973,1000.0,1
9.249525547027588,176.67289078235626,437.5842213630676,2.63202341235047,-394.8931396232766,199.8821571051149,-1.9829905559211645,619.0234231966871,95.57917722411334,1000.0,1
9.382853507995605,154.79731559753418,449.41848516464233,2.6743171599453923,-406.6866130792779,176.46604474911888,-1.9396225270126257,624.3134123908739,95.64072900939335,1000.0,1
9.574466466903687,123.55053424835205,465.89145064353943,2.718694403141381,-419.5967694738412,148.82656753345,-1.8873432698475063,628.9190199400105,96.09348105947794,1000.0,1
9.891108274459839,72.70658761262894,486.90065741539,2.7442251221510605,-431.69778614257723,94.80415472609586,-1.854574754624259,638.8767014726374,96.50817623549115,1000.0,1
10.22449779510498,17.573824152350426,510.08182764053345,2.731548834856013,-441.5721610065037,41.62347170519282,-1.8588381454072467,655.9483721552612,96.99019969911252,1000.0,1
10.541099786758423,-30.72325512766838,535.6853604316711,2.6799490850702834,-458.682276919948,-11.08960278825583,-1.9066515252374392,694.3426997798402,97.20714271723993,1000.0,1
10.749435424804688,-62.166765332221985,552.7346134185791,2.614734394832149,-470.1933023306775,-39.793961563558376,-1.9642022759795543,719.4273883202629,97.64625410480542,1000.0,1
10.907760858535767,-86.82870119810104,565.9642219543457,2.5412324557175068,-477.7129749501656,-61.92710527574168,-2.021714395140861,739.620195963739,98.56240330330563,1000.0,1
11.032859086990356,-106.46732151508331,579.0207982063293,2.4781990965283556,-488.6935758620803,-81.4431598028847,-2.0952005757642955,763.0920975487376,97.96350075111732,1000.0,1
11.13280463218689,-119.76375430822372,589.3568396568298,2.440609917656576,-502.1731993209675,-95.56082487335047,-2.1494439523960884,784.4419614097854,97.00928550829236,1000.0,1
11.266098976135254,-129.32878732681274,598.0594158172607,2.35957417667167,-512.9387691444364,-115.76185667138344,-2.211001302793292,810.3686983141838,98.12531508067504,1000.0,1
11.34110975265503,-140.31660556793213,606.8542003631592,2.3083682026177827,-520.1257238735813,-125.74349102537607,-2.273399430687059,825.1995781481751,97.48405190198879,1000.0,1
11.44114065170288,-153.45194935798645,622.1908330917358,2.2519920155304476,-529.6930597302467,-142.1158762390112,-2.3440648376441358,851.8932556735887,96.6653399109181,1000.0,1
11.549467086791992,-166.79124534130096,633.2243084907532,2.1777725186533816,-540.1634087217134,-151.68874067831533,-2.405227147538138,869.1923073424281,97.41346161736081,1000.0,1
11.649437427520752,-175.38851499557495,647.9260325431824,2.1027629596927215,-551.0038774873663,-162.51141677005214,-2.468481836237714,893.250110433344,98.08696607204479,1000.0,1
11.724432468414307,-182.778999209404,659.7939133644104,2.0511437488511293,-560.4122631469963,-169.17199836548787,-2.528312110112451,910.9288472994698,97.61650681492968,1000.0,1
11.807799816131592,-189.886212348938,672.9310154914856,1.993059629839541,-569.508779149392,-176.61342679405286,-2.577720225716666,930.5047300483817,98.1136051932133,1000.0,1
11.899465084075928,-196.7138797044754,686.8828535079956,1.9244505882784293,-587.7707003550165,-185.63147729810444,-2.649811258814625,956.1415661079304,97.91410177385168,1000.0,1
11.96614384651184,-199.48334991931915,698.932945728302,1.8789433069281698,-601.8014975773104,-193.83658317685325,-2.7150923294114166,979.2330282810574,96.78114710504424,1000.0,1
12.041152954101562,-202.50844955444336,712.2052907943726,1.8200102542355663,-611.2844973634045,-198.65124506562137,-2.7675278367664546,998.3774267185645,97.15342903008165,1000.0,1
12.124459028244019,-206.29897713661194,726.7090678215027,1.7590756312462916,-623.8040768377323,-203.32440980052135,-2.8353552290570003,1019.4472903363658,96.75850243996148,1000.0,1
12.199560642242432,-208.15293490886688,739.9837374687195,1.6988885495721595,-635.6145751393889,-204.99451946757256,-2.901302321209439,1037.1631308289554,96.42847814960338,1000.0,1
12.29119324684143,-209.62277054786682,756.0437321662903,1.6287547526214539,-650.6218217010704,-212.21202236704863,-2.964709613317178,1063.9545898697704,96.8138784879797,1000.0,1
12.341206550598145,-210.25694906711578,765.0140523910522,1.589436794679786,-661.9267607805642,-221.5723159649644,-3.023057123800525,1085.0614180953887,95.723565441319,1000.0,1
12.424517393112183,-210.03547310829163,779.7329425811768,1.5255691901225765,-675.3439688689592,-219.35989792474112,-3.0941287587301742,1102.1336126700967,95.31080490549415,1000.0,1
12.507779598236084,-209.1408669948578,794.3832278251648,1.4584499186616424,-685.4270031408392,-221.34993965327365,3.1269658724989853,1121.8566534993006,95.59892220512464,1000.0,1
12.582798719406128,-207.66538381576538,807.2928786277771,1.3986449239185943,-695.7395439902251,-220.6184733277486,3.0595622653941077,1137.9007572319483,95.16355378663587,1000.0,1
12.64949917793274,-205.28556406497955,819.3979263305664,1.346272536026476,-707.8713025869163,-217.63824613253308,2.9933573111576006,1152.4046370795963,94.37100611526769,1000.0,1
12.72445273399353,-201.765775680542,832.6244950294495,1.2876128521901624,-720.5309837194721,-218.89741916544253,2.9328668737493593,1172.5253417746517,94.26611166226773,1000.0,1
12.807757139205933,-197.16787338256836,847.260057926178,1.2225262014631884,-728.8406229784863,-217.2762293587436,2.868721580941151,1189.9216022953985,94.32004749802424,1000.0,1
12.874462842941284,-192.43860244750977,858.5937023162842,1.1685118461756787,-740.090056632591,-216.96626312685237,2.7993516237535228,1206.959549668122,93.44023631726436,1000.0,1
12.941080093383789,-190.51097333431244,864.9395108222961,1.1228118790540516,-750.5134619297982,-217.07608017568708,2.733984652556351,1218.3433532448282,92.31339998806908,1000.0,1
13.041115760803223,-181.50527775287628,883.091390132904,1.041084754292076,-762.8570589163952,-209.57675233681059,2.6639770071303532,1237.6968784925543,92.98487669211138,1000.0,1
13.116129636764526,-174.89200830459595,895.5234885215759,0.9916192346123873,-774.5107724028064,-206.33864746096532,2.587298033841818,1254.4492133883593,91.42566065434941,1000.0,1
13.216060638427734,-162.9694551229477,908.9851379394531,0.9290556890323327,-786.9948741805187,-195.96401976538564,2.524378169610421,1268.983989159284,91.40524509946569,1000.0,1
13.324429988861084,-150.44955909252167,924.8051047325134,0.8560552556417724,-801.0404091155955,-183.8102721095354,2.4498343742158046,1285.4168615295132,91.31681697037244,1000.0,1
13.424444198608398,-137.9338800907135,940.1859641075134,0.7887656359925832,-813.1490155088229,-175.51297609314958,2.3851155494902527,1304.108739431869,91.46411266949052,1000.0,1
13.524416208267212,-124.47015196084976,951.6708850860596,0.7307440370979652,-826.3777920546852,-164.87813112387485,2.3144127796759957,1318.8464811423162,90.73753509651117,1000.0,1
13.616074085235596,-111.75314337015152,963.1065726280212,0.6762484450156289,-840.4886704823182,-150.37078240480628,2.2455943765918724,1330.746891278108,89.91689847534522,1000.0,1
13.716063499450684,-97.38042950630188,974.391758441925,0.6204545900286609,-847.6111283476681,-136.21462269533222,2.1910348153287904,1340.2584210915445,89.98761829640338,1000.0,1
13.816048622131348,-81.82667195796967,984.6780896186829,0.5696992501982927,-854.3054334678817,-120.00325214553446,2.1290134259235085,1347.9778573203191,89.34212120397567,1000.0,1
13.957839012145996,-58.77608060836792,998.4917044639587,0.5040893630558643,-866.9287366271471,-100.99590767653793,2.0696172643615682,1364.5452446440236,89.69814145479012,1000.0,1
14.074474334716797,-38.67259621620178,1009.0819597244263,0.45774378538728194,-879.7815619121292,-81.60933560457468,2.0143129586536523,1377.3422936512648,89.1848441483308,1000.0,1
14.21612024307251,-16.83531329035759,1019.6138620376587,0.40834665916589086,-891.9885025332175,-55.71221730321531,1.9650400650289017,1386.4412290294042,89.19196215179625,1000.0,1
14.374442338943481,10.699089616537094,1031.6787958145142,0.36974997511055246,-903.5642941930506,-29.47035582573546,1.9116122210867565,1400.683781944297,88.3421992849985,1000.0,1
14.6493661403656,59.33631584048271,1050.3284931182861,0.3257617111415128,-920.7779173949646,17.90117077340417,1.8598267428292603,1423.5624630183713,87.89545181431083,1000.0,1
14.957764148712158,114.56574499607086,1067.763090133667,0.3266356353768286,-937.2317685285851,74.90662476113368,1.8538311862956902,1446.3892872559204,87.50185955880738,1000.0,1
15.249351739883423,167.21811890602112,1086.3368511199951,0.2847068044701514,-950.6023020960032,124.59173222300831,1.8215566278324742,1474.6105137734921,88.05500862408717,1000.0,1
15.474385976791382,206.988126039505,1097.217082977295,0.2214685758454543,-958.6612558813126,164.9168864074554,1.7700541939721595,1492.6225705437212,88.727420133318,1000.0,1
15.641047716140747,238.1071150302887,1103.5395860671997,0.15902306848703657,-960.0875154669034,187.6261295463995,1.7162338873768093,1508.1670439272243,89.22160773449478,1000.0,1
15.774362564086914,260.5275809764862,1107.004165649414,0.10671062656744211,-960.7966280995141,215.41536263049608,1.647978443890254,1512.1386898508433,88.30814103193748,1000.0,1
15.915973663330078,283.0278277397156,1108.6044311523438,0.021328655230735336,-966.0513591027127,240.36972933249075,1.5917488981242223,1521.193712992251,89.97845197970642,1000.0,1
16.015994548797607,304.62220311164856,1108.2649230957031,-0.029041616605639007,-968.0923963424481,254.4149143506046,1.5275263091396962,1532.5998463713893,89.18477267064063,1000.0,1
16.132680892944336,325.38479566574097,1107.9522371292114,-0.0993958162155471,-964.4771790713835,278.7581154054123,1.4640488001803142,1533.3971453521285,89.57877802193283,1000.0,1
16.232654809951782,343.9522385597229,1106.4167022705078,-0.1671558025172099,-967.958751419895,294.68189810857166,1.4017353024804011,1542.7325879481245,89.89083883197921,1000.0,1
16.31594443321228,359.7409129142761,1099.4043350219727,-0.21293532735484294,-969.6743491043321,303.7852275608046,1.3523505961077764,1549.30781416906,89.6842771456457,1000.0,1
16.415960788726807,378.89260053634644,1096.2995290756226,-0.2846204622238939,-964.9223248295036,323.26741370675296,1.294632117258214,1550.2958443560683,90.48450758947337,1000.0,1
16.490950107574463,391.3626968860626,1091.1438465118408,-0.33793498690956547,-963.2086183356207,333.8946563480856,1.2351559543736301,1551.8665483942439,90.1314717257891,1000.0,1
16.582642316818237,406.55258297920227,1085.0225687026978,-0.40578729611557285,-961.1795459463133,350.74860107287265,1.1711338854543774,1552.3689754803684,90.35092832874112,1000.0,1
16.649311304092407,416.67282581329346,1078.3836841583252,-0.4529573961070108,-957.1761740328689,359.5058151961615,1.116401719917186,1550.5632734144976,89.91765388856817,1000.0,1
16.72430944442749,429.34587597846985,1074.3045806884766,-0.5215776446299188,-954.4194556173045,372.3206461098881,1.056431727383948,1551.6404020689843,90.41327704848402,1000.0,1
16.807589530944824,442.15866923332214,1065.119743347168,-0.5888622597370536,-948.8725064820185,377.69331358682234,0.9919386739503386,1551.619421167787,90.5732217506275,1000.0,1
16.890982151031494,455.8638036251068,1056.3462972640991,-0.657138720586549,-943.9735204389835,385.2300071605037,0.9365001739261991,1552.3986629359504,91.30878272347468,1000.0,1
16.957661867141724,464.28707242012024,1048.0085611343384,-0.7098288142087127,-942.0705141518746,395.4830449912779,0.8731443760621629,1550.3648636777002,90.69768288488059,1000.0,1
17.024277925491333,474.5904803276062,1040.084719657898,-0.7753117503401352,-933.2919428685958,401.4278644362803,0.8159142156236522,1545.9674952166285,91.17053210135259,1000.0,1
17.10761547088623,486.4291548728943,1027.6691913604736,-0.8466156053378967,-921.6411713629452,404.3251551559587,0.7521043403756733,1539.8765635912637,91.59990551277166,1000.0,1
17.124282598495483,488.61604928970337,1025.374174118042,-0.8597306913625193,-910.1231245270938,408.68445375444026,0.6967012820263109,1528.6521800500707,89.17698317439803,1000.0,1
17.232649087905884,501.5310049057007,1009.790301322937,-0.949106796038371,-895.4499243599972,415.7859204370727,0.6356324805751473,1518.0240186649391,90.79887217856972,1000.0,1
17.307626724243164,509.44364070892334,998.5920786857605,-1.0162196303001503,-886.9727080690645,426.5518171220708,0.5815486351803523,1509.0423055647914,91.54537825197086,1000.0,1
17.38263463973999,516.1569118499756,986.2154126167297,-1.0804880388424742,-876.9799709034032,430.55137286771543,0.5136065979223102,1499.8642935805879,91.33489483106216,1000.0,1
17.449257135391235,521.8534469604492,974.8750329017639,-1.1383161118629679,-864.9839201691469,440.1764671285413,0.44804479264324115,1486.3446569039402,90.8917846127616,1000.0,1
17.532662868499756,527.8883576393127,960.6441259384155,-1.2108080857150287,-851.379994350829,444.66242998210413,0.38669558676952864,1472.6229311550028,91.53021819001448,1000.0,1
17.607630252838135,532.6433181762695,947.6351737976074,-1.2748402136895367,-843.3120175521583,446.4961672991544,0.321110538679635,1464.3747436205622,91.4412424214819,1000.0,1
17.690918922424316,536.8379354476929,932.5637221336365,-1.345439662487461,-828.1717408423453,452.020252953953,0.2594742208302298,1447.1259247683597,91.95479199605514,1000.0,1
