time_stamp[s],x_true_pose[mm],y_true_pose[mm],theta_true[rad],x_pose[mm],y_pose[mm],theta[rad],p_err[mm],a_err[mm]
6.741698503494263,57.51701891422272,-31.096636503934864,-0.026053114521379594,37.58532506656402,-0.29236875225725023,-0.014219482310419675,36.69026207802066,0.6780171819980685
7.091756820678711,107.95440971851349,-31.21759854257107,-0.0232631718338554,88.5478473315085,-0.5801090852677626,-0.010716518487150186,36.26665719262099,0.7188702837798984
7.441761016845703,159.83470976352692,-29.631645604968075,-0.02409300664085534,133.4881301132937,-0.9227256907041111,-0.0030768970787240293,38.96593822699134,1.2041343796946566
7.791722774505615,211.16400957107544,-28.310767561197284,-0.02371666958722285,196.7856786753164,-0.8764690480896224,-0.011784001551772935,30.97381368598707,0.6836915167619435
8.116761445999146,261.0677897930145,-28.1608022749424,-0.022100941129216345,242.76010912819086,-1.6266778494123684,-0.007816540749299454,32.23710486930655,0.8184358546443076
8.441699743270874,312.5851571559906,-27.28667408227921,-0.02033322192616782,287.94914871854104,-2.2323673872625447,-0.0019466020600791458,35.13760372731816,1.053475717838276
8.766703128814697,364.06625509262085,-27.009946480393413,-0.019404253873690713,346.7712500341024,-2.4283259510442834,-0.008735415665667148,30.056168548620708,0.6112794016276665
9.091728925704956,417.4210846424103,-25.373795256018642,-0.018190897796212413,401.7240035627422,-2.6116128600596724,-0.012144390857798277,27.649869834206772,0.34643932836769875
9.416698932647705,470.58088779449463,-24.12776201963425,-0.017527395369071996,454.6542574517834,-2.007915113323126,-0.00542913269442316,27.25702076955609,0.6931793906980332
9.741724252700806,515.6048059463501,-24.162362515926365,-0.01439724806289111,506.7817711892101,-0.6795820834649937,0.0017821585862359552,25.085591863954328,0.9270117160208824
10.06682825088501,576.3884902000427,-22.323460504412655,-0.012200423189827392,559.4225562905946,1.2030055549705834,0.006179642252831868,29.005818703547643,1.0531001770386288
10.391769170761108,630.7752251625061,-22.75369614362717,-0.011013590019124164,615.1607353573879,4.379923945181404,0.001334345373899031,31.305680490893916,0.7074845837204424
10.691691160202026,683.1920862197876,-20.58244794607163,-0.012661504288798975,672.7581458926023,6.7807526813481696,-6.965833450774631e-06,29.285010830247103,0.7250516451774518
11.000046730041504,737.4327301979065,-19.290040433406833,-0.011430028166941053,725.2811090405969,7.721229349024348,-0.008387680911623317,29.618754059042626,0.1743136575429162
11.300087690353394,789.2306566238403,-17.733789235353473,-0.010676761832907333,778.0617033996659,7.88517926847274,0.0029186394311479587,27.94775596222057,0.7789591132171927
11.625101327896118,818.4393763542175,-16.91842004656792,0.08629990091870621,796.2288888755605,9.205039124154327,0.08827021059056257,34.28907804365658,0.11289042853117591
11.700041770935059,823.1927871704102,-16.850709170103077,0.12276257556216175,803.4554828454502,10.903084788082438,0.13326929339402124,34.05633951395096,0.6019905883003921
11.825068235397339,827.8945803642273,-15.762272477149967,0.18675438355018525,799.978817469196,10.843439433528006,0.1940951174818942,38.563632145916955,0.4205930728153979
11.925132989883423,832.3040723800659,-14.693732559680942,0.24471072779858982,808.3311755016629,12.65804828416985,0.25553183397845186,36.370588393268946,0.620003713769028
12.025142908096313,837.0209455490112,-13.666133582592014,0.3006043427073275,807.5005351977322,12.910378125079898,0.303047989377062,39.7210976919813,0.14001064079698647
12.1250741481781,841.4103507995605,-11.990483105182651,0.3570806015589082,804.1660304149044,12.676548911991562,0.3590938981364495,44.67215989238947,0.11535339680124902
12.225116729736328,845.7005143165588,-10.186861455440525,0.4162866674287301,806.0139315608271,14.014482606903918,0.42530941732709926,46.48365202145283,0.5169654887786449
12.325114250183105,850.5017876625061,-8.185322582721714,0.4742126979830845,801.7061517114308,12.726791297556998,0.48905044136603965,53.0879515032518,0.8501400733414932
12.425066709518433,855.0149321556091,-5.206505954265597,0.5319423632949906,804.9254693907828,14.818469473904774,0.537302438851612,53.9439887380211,0.30710970726564374
12.525142669677734,858.4057807922363,-3.5109587013721493,0.5827260035390871,807.9777456538435,17.118087478777603,0.5822255698715474,54.48434889233543,0.02867273707627851
12.625134706497192,860.5852246284485,-1.8354907631874111,0.640020646332212,811.7429356896241,19.987315802731665,0.6397439112541315,53.495832316145204,0.015855752017233597
12.725118160247803,863.8646125793457,0.8616752922534915,0.6990975112985437,819.0336884104174,25.93653051538828,0.698719066678636,51.366916651687085,0.02168327950014145
12.825116872787476,867.7166223526001,3.5766407847404453,0.7595246296778875,812.6441460418218,20.770480696825256,0.7629738894279527,57.6940705612252,0.19762802612308916
12.925158739089966,870.9789037704468,6.656032800674436,0.822502010391167,823.0079223929808,31.44153843547855,0.8237773234251335,53.99570671720197,0.07307005440430762
13.025192499160767,874.3258833885193,9.59048122167587,0.8817309990316573,819.0310549319342,27.939294445103332,0.8807884524689469,58.259737389996815,0.05400394003786997
13.125117778778076,876.836907863617,13.589572906494137,0.9388940267493848,814.0935045041857,22.97575956052102,0.945537150324052,63.44158860738371,0.3806229436122866
13.225143432617188,878.7906289100647,17.72830337285995,1.0019607879575179,813.3209370528995,22.466875375078814,1.0048814899167682,65.64095228203487,0.16734389548063364
13.325100421905518,881.6089749336243,20.6070140004158,1.059759872679285,813.2746108937871,23.357281789528244,1.0667879087441745,68.38968695381506,0.40267680478390255
13.400083541870117,882.9234957695007,22.770208120346066,1.1071387214677606,812.8340343345262,23.252510588045965,1.109101148768325,70.09112083506105,0.1124388019235973
13.500075578689575,886.7103576660156,26.745226979255673,1.177220874873088,819.3007439426348,38.268304839231234,1.1815185661661602,68.38740633846612,0.24623957274316627
13.650029420852661,893.4595704078674,47.51388430595398,1.1966715470420435,831.927431833669,71.05204115473491,1.2076047946831627,65.88056546017329,0.6264289462074959
13.975086688995361,910.6515169143677,101.77389979362488,1.2192723805264103,848.2562636919308,120.08589252643743,1.2246825021490892,65.02689214885328,0.3099771356319725
14.300088882446289,927.165699005127,155.99210262298584,1.2379156437477987,863.5300443949211,166.90242100221997,1.2382013679689199,64.5641664145497,0.016370791974905395
14.62507677078247,939.267885684967,198.79446625709534,1.267105176045372,874.8622584734521,203.64777084422514,1.267808994019276,64.58822943790985,0.04032579945015158
14.925110101699829,952.9377937316895,255.3925633430481,1.2911537060801659,885.2992177099882,247.35876505724187,1.2967319069430774,68.1140138381265,0.3196073667210627
15.258424520492554,967.3382759094238,312.7324402332306,1.3226218595306118,897.4704837301142,296.8996231692069,1.3267854794993073,71.63928028807966,0.23855785170263888
15.558380365371704,977.8584957122803,363.1477177143097,1.3441451738470367,909.7304677343003,353.8348545944944,1.3458384419133624,68.76159986254565,0.09701711378474333
15.858452796936035,987.3117923736572,413.1427228450775,1.3584555363367996,920.4384916201284,406.17628910887635,1.364988997583522,67.23518091500016,0.37433975504947997
16.15850305557251,996.9012260437012,466.4187550544739,1.3754665746332606,928.6613753619007,449.2217138667476,1.3884198282437623,70.37340013589494,0.742166762844343
16.458467960357666,1004.6227693557739,517.0064687728882,1.3970237414088693,941.374037269363,524.5172766402114,1.4113166059122126,63.69312635880285,0.8189208131939202
16.758418321609497,1012.3514652252197,572.3526000976562,1.4141488060732328,947.5894204826802,566.9988389061953,1.427573347125823,64.98296082920416,0.7691695442135282
17.058489322662354,1016.813588142395,624.5485067367554,1.433671720275839,957.0443604522617,635.5390252292009,1.4456795208550097,60.77130964038695,0.6879962944212344
17.35841464996338,1022.638750076294,678.8579344749451,1.4459725621991004,963.6474264864945,691.6961092926882,1.4561536085528861,60.372137543136255,0.5833309870989759
17.658452033996582,1027.820897102356,732.5468182563782,1.4590778492238483,969.3033867274232,754.3903789879708,1.4745155399054735,62.46150947515707,0.8845145214855601
17.9585018157959,1032.2069644927979,787.677538394928,1.4705402756973205,971.2986664080634,797.9110777032042,1.4722278963452595,61.762011806230106,0.09669354054604017
18.258434772491455,1036.069941520691,847.4424600601196,1.4877749334349284,973.3850967596571,849.7971193172119,1.4924393368831002,62.72905373853423,0.26725063152651013
18.558454036712646,1038.377833366394,900.9965777397156,1.4991370986847075,976.4104679985853,904.0208331161615,1.5077297453634622,62.041119358127816,0.49232238953974844
18.83342719078064,1041.6380882263184,923.890483379364,1.5866645261878576,977.3594826964219,924.7377863493944,1.5967406285134447,64.28418974515476,0.5773181371980939
18.95842409133911,1039.6778106689453,932.3366403579712,1.6518339645162716,977.0068641308519,926.3548956689416,1.6623822150572922,62.95576867535886,0.6043702372470675
19.058383464813232,1040.2215242385864,938.7021780014038,1.7098637139576358,976.2342300219277,931.7329617224177,1.7165966902422232,64.3657035750603,0.3857711246685293
19.16672372817993,1038.4079933166504,944.2970275878906,1.7820548874768942,973.9699947751275,943.4391707048562,1.7867261310317832,64.44370857166027,0.2676425407728279
19.266714334487915,1037.07594871521,949.8277425765991,1.8444007375185394,976.6021320210167,931.6361093974948,1.847677284844496,63.15075631602504,0.1877323331521896
19.36676049232483,1035.615634918213,955.5431127548218,1.9078863611916768,973.3714621880493,941.4001286527026,1.9059474663295308,63.83072174255301,0.1110904925205616
19.46671962738037,1033.030343055725,960.5797052383423,1.9711821488885746,968.1354923072862,955.2937933092103,1.9793890848376356,65.10977283468819,0.47022279261539257
19.566718339920044,1030.4651975631714,967.1340703964233,2.0345410757289075,970.1503127254147,949.7890611569082,2.032329654488837,62.75933937280347,0.12670510378161753
19.64171576499939,1026.856017112732,972.2208499908447,2.0817395035481114,969.0085783308194,952.441536843428,2.082978648460636,61.13548398606726,0.07099777369276927
19.741766214370728,1024.9164819717407,975.4994630813599,2.1449033423726327,973.8528827324554,943.4733759933251,2.1432366902956206,60.27571170414101,0.09549212992950652
19.816774129867554,1022.6045370101929,978.6256074905396,2.19683626902503,969.4337823590151,949.9625543057062,2.1939945396165648,60.40446811331361,0.16281910162326835
19.91676926612854,1019.5117712020874,982.9045057296753,2.259431555532411,962.2391494836806,960.2238852755994,2.266567581132489,61.6000303789013,0.4088641493817851
20.016780138015747,1015.8838748931885,986.6567373275757,2.3276800834329134,970.0893488767003,950.0579389608854,2.325877867264628,58.62261214719505,0.10325938021300238
20.091774702072144,1013.2258653640747,989.3773317337036,2.3763361345057525,966.9641764610988,953.5745939411822,2.3727853577526754,58.49769135270012,0.2034445219444858
20.191837310791016,1009.1713190078735,992.9549217224121,2.4421626608442315,960.3076888329103,958.5093153168323,2.4397053834156237,59.78422998185806,0.14079162575198614
20.266831636428833,1006.415319442749,994.998288154602,2.492348863782773,956.6630065544542,959.8391413199737,2.4924629361795856,60.92173868065275,0.006535866896297398
20.341795206069946,1003.2784461975098,996.9822883605957,2.541804423783372,955.3648660013978,960.8766196080987,2.5497647757292876,59.99442043452283,0.4560945699397224
20.441803455352783,999.1387844085693,999.4335889816284,2.609932084748463,966.7140917106085,952.2004940791082,2.605138589703387,57.29158708421048,0.27464703519971956
20.516823291778564,995.6905364990234,1001.5060424804688,2.659169124939486,966.0591058122395,953.0967950130034,2.6540875164285667,56.75805603535041,0.29115472081344884
20.616811752319336,992.3561334609985,1000.7190227508545,2.731333867700503,943.0259685987259,965.4565277979752,2.741549620756679,60.63751904259307,0.5853195346667667
20.716795444488525,984.8334312438965,1006.0129880905151,2.784182234580874,946.2488886490968,963.8893479873464,2.785591603532128,57.12414535720602,0.08075089268361975
20.8668270111084,960.3000402450562,1014.7644996643066,2.822835296345908,918.9860383885975,973.4034485617698,2.8285269185240938,58.460100048683906,0.3261059293931129
21.166770458221436,908.4893584251404,1031.6123485565186,2.854349058032396,878.0447960836636,985.6875411484772,2.860038051360596,55.099540031018,0.32595530738395945
21.46682381629944,857.4817299842834,1043.1798219680786,2.885490841256928,833.3702829929063,997.5395238724278,2.8878645996979158,51.617813652632144,0.13600634025215216
21.76686406135559,806.4196825027466,1054.5656204223633,2.9198797465653534,774.6330950821537,1011.3899565854975,2.9187014960618005,53.61459770996172,0.06750878106274595
22.066890001296997,751.0314106941223,1064.611268043518,2.9523942843163624,720.7075662645739,1021.7698119702445,2.9601138333152592,52.487388003840344,0.44229757738122755
22.366848945617676,701.1571049690247,1071.4063167572021,2.9928556939230404,675.4391126223028,1028.3012932562508,2.9970343800948633,50.194204659139814,0.23942108155513273
22.66680669784546,649.0793347358704,1076.073718070984,3.016784867018576,613.5500387346475,1035.9780765910689,3.0082936759074546,53.572300118889714,0.4865094137062563
22.966837167739868,594.7765827178955,1079.8913955688477,3.0509990996045433,561.2620321124401,1040.3616277192257,3.0418221684135034,51.82497128345212,0.5257994261285505
23.266860723495483,540.5702114105225,1082.1520805358887,3.0770540115765144,466.4139195443398,1047.3712317464376,3.077485629456948,81.90764961746324,0.024729882911237597
23.56681799888611,486.1836552619934,1083.5057020187378,3.1028309808917847,408.4474949202534,1048.4600147538356,3.108250860005277,85.2708087245925,0.3105361986742269
23.866816997528076,429.1027009487152,1082.6252222061157,3.1294488024810545,349.75997556663975,1048.7109173773672,3.1243599412733407,86.28701028006891,0.2915702697298472
24.166829347610474,373.73940348625183,1081.1439275741577,3.1544130946469076,296.43723220846294,1048.22731968284,-3.1308675723035866,84.01862150339866,0.12005527143450839
24.466774940490723,318.1638240814209,1080.346655845642,3.177330187596163,275.70079125261435,1046.9127504386586,-3.098863124815415,54.04567686488369,0.4006117905844092
24.766835689544678,264.2280578613281,1074.4862079620361,3.204666076871245,248.98420988377288,1045.8605448283488,-3.0663508005997917,32.43152002306031,0.6971996656015119
25.0668363571167,208.58843326568604,1069.6545362472534,3.2251891548873335,207.62334884142317,1041.7090722058676,-3.0524477216540604,27.96212346075205,0.3179016584895376
25.36684489250183,153.86524498462677,1063.510251045227,3.2468949452646267,166.7023484147743,1037.148704075747,-3.0173139670194478,29.321022886325242,1.0872673378864603
25.675171375274658,93.67461204528809,1054.811668395996,3.2649595065423167,125.86444515892245,1030.6017711235156,-3.001697385017526,40.27784107704495,0.947008457049455
25.92517590522766,73.41634184122086,1051.9325256347656,3.3769631621532508,117.89003200648753,1028.207244867672,-2.9031166962808115,50.40632960644487,0.17792910661273448
26.000153303146362,67.72783100605011,1051.267695426941,3.4247814966092216,113.15684832023099,1026.614228309614,-2.848702239546852,51.68741679594046,0.5558590742937035
26.100220203399658,61.47979646921158,1048.6063480377197,3.487166087502378,108.84904524383657,1024.8184487332692,-2.7929381452770006,53.00669658440328,0.17653255949771457
26.20016121864319,55.967819690704346,1046.4875221252441,3.555907701488292,93.54206483974731,1019.378752347879,-2.727450411825795,46.33259433015344,0.009901062180837365
26.30014395713806,50.05642473697662,1044.3372249603271,3.6247262236669675,73.06561150332708,1011.4099361335609,-2.6592088879306783,40.170001557506595,0.04296062861508969
26.40020513534546,44.74456310272217,1040.9990072250366,3.6925370948461955,68.28598533709307,1009.5617056324672,-2.5936676379873256,39.2747055016215,0.17300034652400817
26.5002019405365,39.296333491802216,1038.9748334884644,3.74553666802006,61.85268119569143,1005.3970311414173,-2.539882322950927,40.45068147999619,0.12798065401402994
26.62518882751465,41.99931472539902,1037.8112316131592,3.834954193034405,80.07385781130175,1017.0787340478782,-2.450835872769804,43.35328461021891,0.14924167584115658
26.700207948684692,35.445865988731384,1035.2406024932861,3.88945442635453,71.21545425930717,1010.498210272005,-2.394076388749527,43.49309620937814,0.019796145860484463
26.791797637939453,32.36261457204819,1031.1467170715332,3.942090749606046,72.03522378819913,1011.4734588111855,-2.351288278735637,44.282649114475554,0.5840572001213016
26.875122785568237,29.10831272602081,1029.1105031967163,4.000202924286735,52.775001034635736,995.4647892218196,-2.282869392596353,41.135704739042566,0.0064738671153210005
26.950130224227905,26.553225517272946,1025.719714164734,4.050420903472177,56.31129584443219,998.9645583626739,-2.2352792522896587,40.0172601709395,0.14409020987734011
27.025161266326904,24.618369340896603,1022.7362632751465,4.107695220592191,57.26442065622289,1000.2044088687296,-2.1809488704989897,39.666725721628254,0.31276527940825216
27.100107431411743,22.989456355571743,1017.7690505981445,4.158469393497171,59.912589630475054,1002.2841847502737,-2.1350051822906893,40.03871677717494,0.5895316655305105
27.200106143951416,14.259819686412808,1008.2394599914551,4.215318579392016,60.01123364322377,1001.6698818297875,-2.072273882595731,46.22067974694591,0.25251137016842506
27.300097703933716,13.446342945098873,1004.1379451751709,4.279767569032216,56.12307949907802,994.627758058569,-2.0065383731550943,43.72353487414438,0.17879921534333182
27.375105381011963,11.164457350969311,1000.5998134613037,4.333030776943502,52.21150828783999,988.3659562482505,-1.9533867636642142,42.83138630634583,0.18519333383297826
27.450085639953613,9.125881642103192,996.760082244873,4.380503194250474,48.18185175216676,982.7529562138559,-1.9025958971827313,41.49178690882061,0.004939798395178221
27.550095558166504,8.07823687791824,991.9019460678101,4.447822743657738,51.21147259447216,992.0810136593574,-1.8412032286668751,43.13360741442971,0.334645462359205
27.625102519989014,6.296080350875852,987.4125242233276,-1.7826728650236652,49.710538455178636,990.9534775652669,-1.791659923879597,43.55862168457643,0.5149205426805601
27.700112104415894,6.003414094448087,983.685564994812,-1.732243613491092,45.9843129580173,984.4348416344201,-1.7380506765066353,39.98791929347677,0.3327202021571464
27.80022668838501,4.4713139533996555,978.2238721847534,-1.6624926428001763,41.076433839201925,970.623172532758,-1.6586782029792921,37.38589890659044,0.218551302943299
27.875274658203125,4.920386523008344,974.0404605865479,-1.643768428271245,41.280898321634474,967.9411667524089,-1.624600142206007,36.86852592026423,1.0982618920375657
28.20019006729126,4.680913686752317,911.3115191459656,-1.5948599415773808,38.80741202971779,916.2157020664216,-1.5864289278489072,34.47707788182922,0.4830615036583905
28.500232934951782,6.1107061803340885,853.6641716957092,-1.5534854866134948,39.44044694167811,867.9317378092641,-1.5429316484141617,36.25513842234029,0.6046903864857344
28.800228595733643,8.752808719873425,799.9224781990051,-1.5082389733892503,39.492113117135126,842.3276969015866,-1.504048865317455,52.37468289203551,0.24007550821756463
29.12525224685669,15.132305026054379,741.6162610054016,-1.4614454836258475,43.38893888131803,794.516447303958,-1.4590025335434738,59.97388654449872,0.13997072928115087
