time_stamp[s],x_true_pose[mm],y_true_pose[mm],theta_true[rad],x_pose[mm],y_pose[mm],theta[rad],p_err[mm],a_err[mm],num_particles,valid_pose
0.13338828086853027,4.233136773109436,6.364420056343079,0.043478702866509636,-975.6630339385122,17.556261942653272,0.01921836916427508,979.960082197284,1.3900147307170316,1000.0,1
5.208408832550049,56.12904578447342,8.91786441206932,0.03992757292218002,-862.5607145466602,11.309692781297215,0.01886333057860619,918.6928739139232,1.2068921849275387,1000.0,1
5.5667500495910645,113.9051616191864,9.635116904973984,0.050737194740603835,-771.4758877490495,27.216992947468523,0.02006052188018326,885.5556024020018,1.7576438844056137,1000.0,1
5.88342809677124,162.78117895126343,12.310847640037537,0.050410431899759696,-640.0053894649111,38.31979928686605,0.009921512175065298,803.2077813338117,2.3198442172689804,1000.0,1
6.208373785018921,214.35165405273438,14.689899981021881,0.05125492990057785,-512.1698425957725,37.855351207793824,0.015521742977539511,726.8907230271454,2.047360799242161,1000.0,1
6.541824102401733,263.61826062202454,17.389681190252304,0.05143338916596296,-372.6841573697508,26.039758406814602,0.014714449396438591,636.3612110885078,2.103840276988818,1000.0,1
6.866878271102905,321.5300440788269,20.304854959249496,0.05051310600302891,-193.90506694910042,37.24850106064353,0.006019111108243203,515.713525926537,2.5493181211478526,1000.0,1
7.183459520339966,373.1708526611328,24.54948239028454,0.05167007624341461,-64.92186075371437,37.51089292271296,-0.009890305719185125,438.284409613408,3.527150071670244,1000.0,1
7.525121688842773,430.76232075691223,24.891449138522148,0.05273072876947049,75.92905728907239,32.485148074177715,-0.0088433925019633,354.914509603035,3.5279372760798626,1000.0,1
7.825126647949219,480.3818166255951,27.363093569874763,0.05192318249068521,177.9856590081712,35.58540852056799,-0.017346396504849936,302.507921557321,3.9688545250922207,1000.0,1
8.125106811523438,531.4783453941345,30.17108328640461,0.05249586350815664,278.05971499578857,30.530082735631765,-0.023075572665552855,253.41888468221546,4.329924344495833,1000.0,1
8.425171375274658,582.6510190963745,32.607462257146835,0.053563354128796314,367.4515491479553,23.41503496049904,-0.03267431119309899,215.39571162324643,4.941054258006299,1000.0,1
8.725141525268555,635.1029872894287,35.862479358911514,0.054781031886257096,444.91841416356203,27.586195250032773,-0.03638087958740546,190.3645679576927,5.2231927797861,1000.0,1
9.016845703125,682.6022267341614,35.15799716114998,0.0463600083753511,521.0191945370498,29.400059104870298,-0.034943767167758155,161.68559040518346,4.658363197099122,1000.0,1
9.325196743011475,737.5450134277344,37.66878694295883,0.041775409941325496,598.0998292866042,20.070853088316817,-0.04406744246728061,140.55122431379266,4.9184331443775635,1000.0,1
9.616911172866821,787.6855134963989,39.50135409832001,0.040266540160738475,660.418067134886,16.558844047163195,-0.04641823739278509,129.31883726212516,4.966671901847274,1000.0,1
9.983532428741455,804.9252033233643,40.06714001297951,0.12978162428318557,689.6400761744771,15.001352951861264,0.014140250675506442,117.9786176505234,6.62576264481556,1000.0,1
10.116822957992554,805.9633374214172,40.794070810079575,0.17763419805341474,705.0083992158796,2.871567296309458,0.07358550955708837,107.84255106791484,5.961550714710901,1000.0,1
10.275135040283203,808.4620833396912,41.359517723321915,0.2345880972637492,716.8230159490867,3.8786584648448046,0.1284869118391472,99.00774456058235,6.07915012616466,1000.0,1
10.416788101196289,809.9896311759949,41.9149324297905,0.28807214413190496,734.7783943540436,-1.354888233671401,0.17980067824761103,86.7698537773102,6.203498036864721,1000.0,1
10.575145721435547,812.3740553855896,42.37750917673111,0.3455189145738116,744.1721666291783,-1.3648861973009758,0.23826836518437158,81.0240383034569,6.145003830474303,1000.0,1
10.71679162979126,813.7264847755432,42.98701137304306,0.40045986392469113,749.7339323982509,-5.138503494116035,0.29475191023220726,80.06941951200629,6.056619607543672,1000.0,1
10.875109195709229,815.7243132591248,43.871358036994934,0.45862493852747954,751.2299507528835,-7.3103661917341025,0.3513629267151348,82.33523966147258,6.145660578929736,1000.0,1
11.01677393913269,816.7369365692139,44.82490196824074,0.5137889889930923,755.4597315436033,-7.9950171316864695,0.4120093794662222,80.90018361829327,5.831542066379165,1000.0,1
11.175156116485596,818.2365298271179,45.778024941682816,0.5735720762388502,761.5942299935593,-9.91009108338473,0.47353289677799687,79.43246437607318,5.731822769058727,1000.0,1
11.316785335540771,819.0029859542847,47.02579602599144,0.6297498003741236,761.0962469203689,-13.668670850441893,0.5301753265622001,83.88688058901991,5.70519709665916,1000.0,1
11.450148582458496,819.8435306549072,47.89086803793907,0.6791563083977542,763.1383541176452,-20.771528582996336,0.5849016856199619,89.05055730231389,5.400392084765134,1000.0,1
11.591870784759521,821.035623550415,48.75531792640686,0.7346502082333296,764.73958643973,-17.202460609780648,0.6473284395738536,86.71604432742755,5.003168803805722,1000.0,1
11.750128030776978,821.8498229980469,50.08639395236969,0.7985176270368698,765.6625458437784,-17.945703271604152,0.7077857938603935,88.23477980197383,5.198551108497152,1000.0,1
11.875110149383545,822.9328393936157,51.05818808078766,0.8506454692314805,765.2861044588946,-20.98935752080485,0.7615014143572696,92.27131122861294,5.107578112974902,1000.0,1
12.03352427482605,823.4748244285583,52.25231498479843,0.9144412767827342,769.0568285318185,-24.929285482262852,0.8200840120290696,94.43684518277107,5.406273036783506,1000.0,1
12.15019941329956,824.0174055099487,53.383633494377136,0.9622091052433006,769.2577819655342,-20.57410772662725,0.8703897469742105,92.02371355927262,5.260861706418502,1000.0,1
12.275175333023071,823.8924145698547,54.17225509881973,1.0128691982461342,769.8711373136666,-17.318063786525542,0.9247117079796429,89.6056030096238,5.0510521247355875,1000.0,1
12.391824960708618,824.7349262237549,55.143699049949646,1.0598613163695403,771.5946355356118,-17.48085607466437,0.9750937438358201,89.99009112934849,4.856824145751242,1000.0,1
12.533530473709106,825.1734375953674,56.23131990432739,1.1199590298447257,774.0618929760823,-17.4032643410452,1.030892844132714,89.63504889471557,5.1031165386266615,1000.0,1
12.66692066192627,825.5692720413208,57.49721825122833,1.177134870918319,776.1421050689971,-17.6199888641301,1.0874595329434575,89.92018482922298,5.138018392368796,1000.0,1
12.908457517623901,841.7205810546875,96.35299444198608,1.2062000168486395,795.2441920316327,12.425581946941577,1.1384932136824804,95.93677764411146,3.8793140657439196,1000.0,1
13.225264072418213,860.3535890579224,143.9090371131897,1.2267875107082375,821.5514890254441,64.00115108323617,1.1621825973825284,88.83058716853387,3.7015888693716263,1000.0,1
13.5502028465271,877.8147101402283,195.13320922851562,1.2466486694264052,841.2713734420864,114.46635976163867,1.1784358315489623,88.55820718570102,3.9083077189876,1000.0,1
13.866847038269043,895.7427144050598,251.0855793952942,1.267193096022983,861.1241103854632,164.00521517450875,1.1974965644742377,93.70932492068376,3.9933171044434923,1000.0,1
14.208451271057129,913.0544066429138,304.27053570747375,1.2825983412552424,883.6694906936284,219.73177864735655,1.2173349520928647,89.50013815975976,3.7393167557240807,1000.0,1
14.525145053863525,927.6794195175171,357.06111788749695,1.30359335415002,905.3833630584315,275.87546864393283,1.2403997079431661,84.19158970304429,3.62072921969563,1000.0,1
14.841915369033813,943.1482553482056,411.96298599243164,1.3190441412460439,922.7371706612427,332.05061044377754,1.2563515813504116,82.47787669385956,3.592019088890854,1000.0,1
15.141901969909668,952.6515603065491,457.0530652999878,1.3468354270394338,937.3438366475456,382.1964019175645,1.2850611940959473,76.40580119578516,3.539402830319789,1000.0,1
15.466906785964966,966.3437008857727,514.1662359237671,1.3609679201439417,953.5457872489799,437.111492222512,1.299161214060715,78.11030738846772,3.5412634041744466,1000.0,1
15.766908645629883,977.8419137001038,567.3341155052185,1.3776961540403416,966.0035835425264,493.4223279104067,1.3157890943812929,74.85384697115028,3.54701324052809,1000.0,1
16.05847692489624,987.1083498001099,615.2752041816711,1.3882038236366714,975.622803730112,544.7930744504016,1.327859881684544,71.41182241044933,3.4574531930393326,1000.0,1
16.358511447906494,998.4735250473022,667.1175956726074,1.4084845743476369,991.1818863197441,602.5981731504637,1.3472508806650503,64.93014614125038,3.508432212009102,1000.0,1
16.658461570739746,1005.44273853302,721.7670679092407,1.418347698987421,1001.5329961671902,659.9900819575128,1.3619793176022796,61.90058221573654,3.229670351352398,1000.0,1
16.9584321975708,1014.8859024047852,774.5287418365479,1.429745326404884,1012.7248116053715,713.4804983797367,1.3689256932523095,61.086482486761334,3.4847082911764633,1000.0,1
17.258443117141724,1022.9613780975342,827.993631362915,1.4435852617193548,1024.2776117549045,765.9473543072125,1.3846817654258206,62.0602366053642,3.3749217361839974,1000.0,1
17.55843949317932,1028.7220478057861,878.2409429550171,1.455698337357505,1034.8529514849995,820.4995324653235,1.3987070171145513,58.06598371906821,3.265362118799742,1000.0,1
17.91695237159729,1032.591700553894,907.3308706283569,1.5460751008236964,1038.356461615514,855.6011705640926,1.453040532640316,52.0499216025953,5.3304881057297875,1000.0,1
18.01698350906372,1032.544493675232,909.3616008758545,1.5856026777794299,1035.4394682246811,866.0901005740568,1.511352214089313,43.368232797872174,4.254238196333063,1000.0,1
18.133646488189697,1033.170223236084,912.3659133911133,1.6347788623843285,1031.8127004467199,870.4534284469106,1.560751273963149,41.9344638969149,4.241468384065101,1000.0,1
18.258556127548218,1032.8176021575928,914.1655564308167,1.6906181867337144,1028.7794899250055,873.0906422432363,1.6121835070803987,41.272932121671,4.493976111595623,1000.0,1
18.375280141830444,1032.668948173523,916.3398742675781,1.7406399499771088,1027.992341203583,878.8158438734271,1.6719141589539934,37.814329423810534,3.937697769322591,1000.0,1
18.533647775650024,1032.6189994812012,919.284462928772,1.8125980854328367,1025.6893519817384,884.2983016564317,1.7283386871809898,35.6658309175745,4.827707904142815,1000.0,1
18.633628606796265,1032.1087837219238,921.0274815559387,1.8486562417888608,1022.7910296897473,885.5993862141034,1.7804459942785975,36.63291525055454,3.908159301880817,1000.0,1
18.77528738975525,1030.8187007904053,923.5732555389404,1.9067807346004206,1021.6701378181039,887.5555460246128,1.8313047349320908,37.161426279364626,4.324456235526101,1000.0,1
18.916964292526245,1029.4692516326904,925.5566596984863,1.9683830799609745,1018.877657779868,893.5406272002201,1.8885107612614562,33.72251765917227,4.576346761406241,1000.0,1
19.033676862716675,1028.356671333313,927.3380637168884,2.0150329481622156,1017.6579892884204,902.1703889182885,1.9440398496362608,27.34727869945728,4.067604920093636,1000.0,1
19.25028133392334,1023.5426425933838,936.5315437316895,2.111158182790299,1014.6291951428792,913.6955960482617,2.0510386187283003,24.513874684618035,3.4445972869189054,1000.0,1
19.41704535484314,1022.9207277297974,935.6441497802734,2.1860584461155357,1010.4892702334566,912.9714680023766,2.104313504686639,25.85713894623885,4.683640140419891,1000.0,1
19.517009973526,1021.8279361724854,937.9318356513977,2.2229196303936534,1008.3293350538216,912.2053695825246,2.154109790943145,29.05276731317812,3.942513389486932,1000.0,1
20.63367009162903,1010.2262496948242,943.7150955200195,2.733982213695602,987.0338581488186,951.8020044279953,2.670253740957413,24.56186314816388,3.6513725227127445,1000.0,1
20.7919442653656,993.8095808029175,949.7016668319702,2.768816606836032,969.8996881779929,960.471437568953,2.7225094785830066,26.2234804528803,2.653203010269356,1000.0,1
21.10873317718506,940.0599002838135,972.3681211471558,2.8043039537659595,916.9607720239568,982.8659281553614,2.7544740566239265,25.372695527807867,2.8550427998094943,1000.0,1
22.067105531692505,783.7164998054504,1024.2705345153809,2.8986887787844506,759.996766661876,1034.9312890548044,2.846065556334523,26.00533460181246,3.0150885507589273,1000.0,1
22.667073726654053,678.0712604522705,1042.859435081482,2.938162509812706,655.8235471885874,1061.2635481956884,2.8812759336862155,28.873380906703062,3.259360722997573,1000.0,1
22.967034578323364,627.0999312400818,1058.2890510559082,2.974973291923196,604.6323796924662,1073.6140596464102,2.9102145017793695,27.19644757764739,3.7104053616146624,1000.0,1
23.26709794998169,573.4673142433167,1066.4888620376587,2.9953851582257847,546.3111605552984,1086.3390535084595,2.937229128260815,33.637579944977006,3.3320950702291006,1000.0,1
23.56708073616028,520.6369161605835,1074.5552778244019,3.024475594314308,493.91241544815085,1097.3276757016513,2.9643465917147895,35.11098180638883,3.4451380752835523,1000.0,1
23.858680963516235,464.3385410308838,1080.3313255310059,3.0426915306194813,442.26883811544644,1104.7781365867688,2.9834665387551884,32.935062738240504,3.3933420755206183,1000.0,1
24.158709287643433,411.97168827056885,1086.4112377166748,3.058993580528661,385.7583238063313,1113.0257124658497,3.0033445812259587,37.35600008980375,3.1884527941713148,1000.0,1
24.442047357559204,361.49924993515015,1090.9929275512695,3.078629509263758,339.09136592155045,1117.0302399605303,3.0083274114079024,34.35192721616037,4.028013498056247,1000.0,1
24.717029333114624,312.1959865093231,1097.1089601516724,3.0986705798006278,290.1742978262103,1122.326724463672,3.036263274063474,33.479701452544376,3.575675229521476,1000.0,1
25.000375747680664,260.7300281524658,1098.8839864730835,3.1078748603532738,234.625992340872,1128.2110563083386,3.0492540369500696,39.261911705556344,3.358725772585323,1000.0,1
25.283690214157104,208.75868201255798,1100.8976697921753,3.12074703956551,182.77725337188113,1130.9757500393116,3.062445254616923,39.74576135342931,3.340446215633393,1000.0,1
25.542137622833252,160.51062941551208,1102.3021936416626,3.1353480031573433,134.55940460097509,1137.2265842578345,3.073427928567927,43.51067833630723,3.5477589411088,1000.0,1
25.91711735725403,128.97267937660217,1103.135108947754,-3.0522696503925375,99.53042473900868,1139.8657967118188,3.1381225839298046,47.07430065084475,5.316651442770058,1000.0,1
26.017081260681152,125.97915530204773,1102.6736497879028,-3.0096555764716295,94.14655513063911,1138.5638123513513,-3.082895642312281,47.973098737766804,4.196346663929592,1000.0,1
26.175477504730225,122.41575121879578,1101.5576124191284,-2.9403390997331345,88.82957208563103,1136.771866335623,-3.021293733474564,48.662871962723074,4.638358845411293,1000.0,1
26.300420999526978,119.98581141233444,1101.1021137237549,-2.885242158845787,83.78958396984427,1135.076295066221,-2.9670428334157717,49.642843179649326,4.68683341418324,1000.0,1
26.417076587677002,117.78110265731812,1100.2655029296875,-2.8350986368307485,87.29225352089067,1133.1601538884297,-2.9105654453052012,44.851175941788995,4.323929618908258,1000.0,1
26.55875587463379,115.554578602314,1099.1822481155396,-2.7681210422738283,88.42239870575688,1131.781620880059,-2.8524792879094902,42.41313818357748,4.833371442051327,1000.0,1
26.675450563430786,113.29368501901627,1098.2266664505005,-2.7171126920114292,84.60839145345128,1132.0978497934695,-2.7889982860657656,44.38584377924643,4.118741147104198,1000.0,1
26.800392627716064,111.29675805568695,1097.5894927978516,-2.656508565536432,85.4682580311785,1134.4597657593024,-2.737572526463316,45.01697948294539,4.644622831723876,1000.0,1
26.892051935195923,109.89096015691757,1096.824288368225,-2.617527132201483,84.69868460337167,1131.7719371286987,-2.6881447052696714,43.0811896475854,4.046088896263902,1000.0,1
27.058782815933228,107.89743065834045,1093.8602685928345,-2.5435928170506776,82.4755076210606,1132.1382946165259,-2.628893395694295,45.950859047288496,4.887363146303028,1000.0,1
27.15883731842041,106.50219023227692,1092.670202255249,-2.4991764583889085,79.46084064863497,1131.9854018260614,-2.5758992121106816,47.71707770387392,4.3958899808792316,1000.0,1
27.275493144989014,105.17263412475586,1091.3896560668945,-2.4439667118498547,75.32509929766925,1130.7392906247703,-2.5166307387490643,49.38895701563782,4.163342063749796,1000.0,1
27.392085790634155,103.46253961324692,1089.8921489715576,-2.3911874419268364,74.11684267242335,1127.8330487203507,-2.457269828643141,47.96542299084444,3.7862418589956235,1000.0,1
27.533778429031372,102.33152657747269,1087.993860244751,-2.3247661774124277,67.51702791745872,1124.3425855470255,-2.3986786240420312,50.331691289368806,4.234871245362227,1000.0,1
27.65045142173767,100.9036973118782,1086.4890813827515,-2.26921201703482,61.91680781916731,1121.4996043661072,-2.337382689472362,52.39956366120743,3.9058918172399864,1000.0,1
27.775453329086304,100.19540786743164,1084.761619567871,-2.213226141446937,59.81847913740023,1120.3574562430717,-2.283412731488691,53.82713035521767,4.021395387807448,1000.0,1
27.892102479934692,98.75615686178207,1082.939863204956,-2.159859872303543,57.375535057969145,1118.422265961616,-2.226084021254458,54.51015287316688,3.7943642367331347,1000.0,1
28.03379797935486,97.91409224271774,1080.8945894241333,-2.092845864149732,54.92514082237555,1118.772906884962,-2.168056678738366,57.295871386024444,4.309262249669695,1000.0,1
28.150423765182495,96.88271582126617,1078.9376497268677,-2.040791258938589,54.74408342992545,1116.1870330967652,-2.112415277077894,56.24216302072801,4.103753951150632,1000.0,1
28.275402069091797,96.5600460767746,1076.9634246826172,-1.979179083345641,52.47223890209162,1116.207397081153,-2.053862839053848,59.02392829259221,4.279064000266317,1000.0,1
28.392136812210083,95.32857686281204,1073.2475519180298,-1.9249342491147041,54.38634737149511,1114.5765588814093,-1.9907686466434769,58.17519206928956,3.7720331251851746,1000.0,1
28.55052375793457,96.23390436172485,1074.8382806777954,-1.8563869869260003,48.8317915613737,1110.2595656194094,-1.9322934610956877,59.17455301776452,4.349120607641884,1000.0,1
28.650546312332153,94.72383558750153,1071.6849565505981,-1.806141079711642,47.55465639462097,1111.4999354008912,-1.874115066507977,61.72652595585921,3.894622560107988,1000.0,1
28.767205238342285,93.9139872789383,1064.0050172805786,-1.774050203997886,41.181718087077954,1093.001666424083,-1.818768719313042,60.17888230662243,2.562182193649569,1000.0,1
29.067164182662964,80.89007437229156,1001.8085241317749,-1.7424899355971586,31.107001150459684,1040.7350908547628,-1.781375827606362,63.195189502441586,2.2279974947288506,1000.0,1
29.367090940475464,71.74055278301239,947.0030665397644,-1.7138716744162799,23.686954055046,989.8463704897443,-1.753898105081206,64.37932155637228,2.293345546073281,1000.0,1
29.69214129447937,63.921913504600525,890.6352519989014,-1.6697991185823267,15.686929051042176,939.991186551653,-1.7169664616328448,69.01175262816119,2.702489687640405,1000.0,1
29.992184162139893,59.16569381952286,837.8865718841553,-1.624704097154481,8.45882520202068,885.1729946412527,-1.6763252829450184,69.33391884320089,2.9576760792584844,1000.0,1
30.29211187362671,57.22010135650635,782.4381589889526,-1.5959707949678261,3.7803185881707306,833.126127615941,-1.6406751302040334,73.65514609216014,2.561369734972651,1000.0,1
30.583871126174927,55.47545850276947,736.1916899681091,-1.5722724059706061,-0.1975392194334904,783.1074290540412,-1.6228863527930635,72.80500840845819,2.8999655374263895,1000.0,1
30.883888959884644,55.064186453819275,684.4216585159302,-1.5559849227062412,-1.29414598358657,729.5728954858859,-1.6030443791631643,72.21423568135471,2.696308241161365,1000.0,1
31.14221978187561,54.3208010494709,642.3835158348083,-1.538324372445322,-3.1099046996404054,677.5835120937876,-1.5842737623485255,67.35967413425601,2.6327061126546,1000.0,1
