time_stamp[s],x_true_pose[mm],y_true_pose[mm],theta_true[rad],x_pose[mm],y_pose[mm],theta[rad],p_err[mm],a_err[mm],num_particles,valid_pose
0.2000267505645752,-7.798437029123306,6.66387751698494,0.01468258361536424,75.02046829572397,-2.7095349071245725,0.7874462376683992,83.34765707372024,44.276095938346515,1000.0,1
5.074989318847656,20.23474872112274,6.7472904920578,0.01535779290635372,164.35327998688015,4.469110286796448,0.7871215723270575,144.1365365174519,44.218807341871745,1000.0,1
5.2583537101745605,47.06243798136711,7.175207138061523,0.015408899986168519,236.01294831050254,2.219170154229764,0.7779276165378939,189.01549580980344,43.68910425814617,1000.0,1
5.416605472564697,73.72267544269562,6.672307848930359,0.019477249873929802,321.81559750048626,4.282821418858542,0.7818904955009993,248.1044288612609,43.68306121930205,1000.0,1
5.591619491577148,101.73068940639496,7.197536528110504,0.018643810995422092,366.59309808939054,45.50944236283839,0.7630515986727953,267.61894114962644,42.651424470584175,1000.0,1
5.774968385696411,130.62147796154022,7.486138492822647,0.019274972992138626,412.4265406039624,76.28601423902468,0.7645228157129627,290.0819129721678,42.699556079132584,1000.0,1
5.9583423137664795,159.07281637191772,7.459484040737152,0.020013831657048637,441.2030990504692,98.90663913624802,0.7504795841141609,296.58064431001185,41.852604694640476,1000.0,1
6.133312702178955,187.02995777130127,7.805269211530685,0.020575350572566382,489.0001216604875,127.14892847966527,0.7469040165156188,324.6981504209265,41.61556709790435,1000.0,1
6.291708707809448,212.20135688781738,8.33236426115036,0.02146887973378258,529.6881139368061,122.23453448261384,0.7353287134771133,337.300378420545,40.901155637403484,1000.0,1
6.47502589225769,243.16748976707458,9.051498025655746,0.021369217377673447,563.7218995143552,137.33787004952507,0.7278012344123882,345.27166529484293,40.47557308900303,1000.0,1
6.649991273880005,265.9766376018524,10.09351760149002,0.019887091917544435,592.7451074658358,156.85417610648744,0.7347948926158431,358.21267953838463,40.96119972099232,1000.0,1
6.8332836627960205,301.10669136047363,11.074766516685486,0.021782511539907595,629.4125923045033,157.11352272448661,0.7293104630809941,359.3216983559337,40.53836551084088,1000.0,1
7.016656160354614,330.0151526927948,11.574942618608475,0.021250411455690697,660.633440610506,180.79250899793743,0.7370615585047986,371.4068349895855,41.01295765433223,1000.0,1
7.149988889694214,351.92859172821045,10.97337156534195,0.022345190298652118,689.2497928354746,189.98893350536122,0.7306965621094973,381.8797770675324,40.58554401706358,1000.0,1
7.333293437957764,383.30477476119995,10.156027972698212,0.027489281893614402,717.509653278554,223.6787838210712,0.743051618486432,396.59156331152997,40.99870186528807,1000.0,1
7.47494912147522,407.9985320568085,10.901011526584625,0.025818968291841434,725.8158446037473,252.93063762980833,0.7460083640092122,399.4823951893561,41.263812824682475,1000.0,1
7.63334059715271,433.77140164375305,11.825162917375565,0.024998896700448216,749.0930111879663,262.07730257905337,0.7409979033562191,402.55912714879685,41.02372121693501,1000.0,1
7.774945020675659,457.36557245254517,12.783445417881012,0.02496085766880601,778.271430510863,266.3109282390708,0.7394593856474364,408.9703586836018,40.93775012148549,1000.0,1
7.933342933654785,484.1163754463196,14.152046293020248,0.02407559099960312,802.8753839348851,272.5433598931053,0.7370969866764043,410.3332504642913,40.853116674808234,1000.0,1
8.066731452941895,507.1372389793396,14.876503497362137,0.023823947696421825,822.6987118336652,282.0145000697032,0.7348719452847778,413.4510277683143,40.74004929304114,1000.0,1
8.233381032943726,535.3164076805115,15.23004099726677,0.023630627507203884,847.2894639604464,308.75888160108315,0.7382567970613367,428.35308813041615,40.94506344505218,1000.0,1
8.391715049743652,563.5677576065063,15.353132039308548,0.025753729908579763,857.9149778855556,323.58927398667265,0.7344005874499974,426.20394799743315,40.602474102331726,1000.0,1
8.524971961975098,585.3658318519592,16.11129567027092,0.027026408595763645,892.5276921702672,349.87872625085254,0.7418990379829495,453.59575190974516,40.95918455330562,1000.0,1
8.691668272018433,614.933967590332,17.064686864614487,0.027078211078363418,909.8582390672865,364.6069558143965,0.739760254969499,455.8135085898343,40.83367324971937,1000.0,1
8.824981212615967,636.4879012107849,17.84580759704113,0.027360703581361008,931.2020118970751,382.76593692962956,0.7364815683719073,469.06620836479357,40.6296327171654,1000.0,1
8.991633653640747,663.6685729026794,17.864689230918884,0.02804152292654836,943.699274087062,405.9456398295184,0.7394872306173207,478.5645388276586,40.76283640337931,1000.0,1
9.124964475631714,688.2351040840149,17.49487966299057,0.032987936339223,959.9293952092434,413.3679077098493,0.7490959164412214,480.13877386129667,41.029964935482845,1000.0,1
9.291675567626953,717.9695963859558,19.168484956026077,0.031479976533632104,963.6540278471095,414.5457215626848,0.7416415912011481,465.49328576157586,40.689263292644526,1000.0,1
9.424962520599365,741.131603717804,19.526058807969093,0.03239412995359093,977.897772235699,433.852918526909,0.7388779831815243,477.2053700862998,40.47854308410049,1000.0,1
9.583297729492188,768.7831521034241,20.244574174284935,0.03225655816116801,993.8267277852807,465.61361684707606,0.7475974934083796,498.99718949805117,40.98601650260633,1000.0,1
9.983319282531738,795.8868145942688,20.78840881586075,0.12125827559086379,999.6051386562951,488.3081631199735,0.8030843913335086,509.9763486900336,39.06575879385193,1000.0,1
10.12500262260437,799.2260456085205,22.500507533550262,0.17449930092464325,998.1067295060927,506.0618097907141,0.8675404498792018,522.8623714403344,39.708332863993625,1000.0,1
10.283291578292847,797.2650527954102,22.189009934663773,0.22740591311357553,987.4793279193028,523.7686390099757,0.9174676892753564,536.4360118077789,39.53762737737137,1000.0,1
10.408325910568237,798.9766597747803,22.256353870034218,0.27539185575368874,980.9662999249484,528.6430954190026,0.9720642233148086,538.0964236440988,39.91638636463897,1000.0,1
10.566632747650146,800.7989525794983,22.49845117330551,0.33430867860904634,974.1586389600755,540.8379913327145,1.0220676038598278,546.5614876248048,39.40568373932324,1000.0,1
10.708359241485596,802.0527362823486,23.065190762281418,0.39075766189607286,973.5817643421011,534.2544178215724,1.0740293420513953,539.1999938136115,39.14858353371266,1000.0,1
10.866698503494263,803.4780025482178,23.886684328317642,0.45142733633998694,973.9294578289898,536.5630676991577,1.1259711574254532,540.2691668729001,38.64851404482492,1000.0,1
11.008374214172363,804.9048185348511,24.419456720352173,0.5071285929581618,967.2204855675008,554.6701816622427,1.1906438685629648,554.5378319516664,39.16254052487649,1000.0,1
11.166682004928589,805.9467673301697,25.502800941467285,0.5694198666344634,956.4713453148494,563.19081564163,1.2529452249031394,558.3601433928359,39.16311821896266,1000.0,1
11.28335976600647,806.8208694458008,26.289764791727066,0.6136425885277244,947.4106989368634,561.6273782257583,1.311157543235789,553.4906146571686,39.96466305203087,1000.0,1
11.441619396209717,807.5008988380432,27.279598638415337,0.6788080130246016,950.3689595257678,572.8548960609529,1.364728205603164,563.971353813615,39.30033211755228,1000.0,1
11.558401107788086,808.3277344703674,27.93901599943638,0.7217226621396329,943.7315993212859,584.2884316753718,1.4241292725405255,572.5896252461449,40.244934278061066,1000.0,1
11.69999647140503,809.053361415863,28.859717771410942,0.7805114476814459,940.2205004672603,593.7308163839947,1.48448154377543,579.9001434856832,40.334515409604286,1000.0,1
11.858365058898926,810.0146651268005,30.017632991075516,0.8434779726249885,936.632344016139,609.3596280435569,1.5475291119876144,593.0170181695572,40.33915884685541,1000.0,1
11.98333191871643,811.0719919204712,31.093763187527657,0.8947117714355819,929.0592968730786,611.9823005642602,1.601550957643904,592.7499447369516,40.49890216419856,1000.0,1
12.141648054122925,811.560869216919,32.311610877513885,0.9627287434216154,925.5508188129442,626.5173122746794,1.6585624768611265,605.0405971352681,39.86833616891512,1000.0,1
12.258262395858765,811.9112849235535,33.296942710876465,1.0099009387131854,906.5473873228924,652.7528231093207,1.717445455437409,626.6431038777574,40.539314625921506,1000.0,1
12.38322639465332,811.8228912353516,34.03801843523979,1.0639846864899811,891.6897822321595,661.7083355203107,1.7739846151426213,632.7311808557955,40.67999936638585,1000.0,1
12.516696214675903,812.4471306800842,34.99104082584381,1.116840885010516,883.5700961598646,671.2277269044689,1.83688268596794,640.1996539603477,41.25535626785927,1000.0,1
12.6416015625,813.2089376449585,35.961464047431946,1.1710340169638915,869.1122841713712,684.3732261737458,1.8987178571066552,650.8171766453338,41.69321286005283,1000.0,1
12.78325891494751,814.1143918037415,41.099950671195984,1.2138794804607456,853.2679037843419,701.3032355818092,1.9593519552582812,661.3632700015773,42.71242654907143,1000.0,1
12.958302736282349,828.6973834037781,77.9479369521141,1.224054261465992,834.1154987901633,729.7701326536084,1.9841477727433625,651.844713703699,43.55015023147278,1000.0,1
13.141660690307617,838.7234210968018,106.59770667552948,1.2376934617531867,822.7370802515676,750.9324754808338,1.9878030849820185,644.5330537567526,42.9781155831604,1000.0,1
13.31665587425232,849.3204116821289,134.64222848415375,1.2477715688098647,807.789365480903,779.1947493254902,2.005501577633352,645.8891390335417,43.41473151599645,1000.0,1
13.499982833862305,860.2120876312256,162.85113990306854,1.2585464788788414,786.089130904646,813.3953594036551,2.023404258608085,654.7533842902362,43.823122706232425,1000.0,1
13.658313751220703,868.0189251899719,188.6948198080063,1.2679306012434697,766.6325958852351,842.511751069189,2.0299099309605726,661.6311414781492,43.65819966899738,1000.0,1
13.833337545394897,876.7778873443604,217.92151033878326,1.2788955156590145,739.2437879459272,880.3669556159357,2.0467565760173225,676.5719447817673,43.995198010971215,1000.0,1
14.016645908355713,887.2914910316467,251.91935896873474,1.2914228850870273,728.7461700686601,905.026098156863,2.0520480428892403,672.075168096699,43.58061133353904,1000.0,1
14.1582932472229,892.985463142395,272.9046046733856,1.2947058278620973,711.3310121214953,934.3054839583092,2.0626643443539154,685.8931860680456,44.000781836109006,1000.0,1
14.333316564559937,900.529682636261,301.6311526298523,1.30366495057313,699.8385204658438,954.6678665624901,2.0705323433443836,683.1792534300573,43.93826505199405,1000.0,1
14.499951124191284,905.3617119789124,329.40366864204407,1.3111682911899931,683.9126979336212,978.6760774279944,2.081778141362631,685.9987803431882,44.152692066100855,1000.0,1
14.675005197525024,915.0654077529907,358.94301533699036,1.3269670905562092,676.0810353695247,1009.6254647830625,2.0936106271825667,693.1819243608849,43.925439039673435,1000.0,1
14.816588640213013,922.803521156311,382.55223631858826,1.3332013112754595,666.6750376016614,1033.942034979916,2.097176885007257,699.9360469986165,43.77257602591764,1000.0,1
14.974997520446777,928.652822971344,411.047488451004,1.3394914841114942,655.958285003272,1052.2771207504804,2.1055786124918043,696.8053906052551,43.893559195488635,1000.0,1
15.116611957550049,934.0499639511108,435.89773774147034,1.3441601702168553,641.6988608165639,1073.5569442608721,2.1139687673351593,701.4830227189676,44.10678364776556,1000.0,1
15.274972200393677,940.1859641075134,462.4994993209839,1.3500499259315395,626.9566469474357,1092.9311836784448,2.120318421471031,703.9578920435182,44.13313388630434,1000.0,1
15.416619539260864,946.0194110870361,488.21815848350525,1.3551961258640222,609.9621327894355,1114.8553751486372,2.133550708122692,711.0616679350776,44.59643252809005,1000.0,1
15.575051546096802,951.3580799102783,514.0171647071838,1.3880679203822688,602.6995108818525,1135.5242687091607,2.151878030854262,712.6246403836129,43.76309567946639,1000.0,1
15.716633558273315,955.7371735572815,535.9054803848267,1.3957244555006179,583.2052713418076,1160.4486978870466,2.172486772198347,727.2099069019238,44.505202431584124,1000.0,1
15.874968767166138,960.4666233062744,563.1885528564453,1.402136951180902,572.0371412715386,1179.6557852730775,2.1787343492033613,728.6352387561249,44.49575328752826,1000.0,1
16.008241176605225,964.2242193222046,585.2096080780029,1.4081569495156998,554.4903663674723,1196.309739098659,2.188453460986121,735.7480549689501,44.70769687603655,1000.0,1
16.174928665161133,968.8499569892883,614.1725778579712,1.4135831799713137,539.1324907967572,1214.2843167345607,2.197983855249583,738.0997221842134,44.9428481406566,1000.0,1
16.308295011520386,972.4504351615906,637.5463008880615,1.4184189088537338,522.884517221823,1238.0768589737086,2.1998027499053343,750.1642925171022,44.76999627197787,1000.0,1
16.474929332733154,979.6091914176941,665.878415107727,1.4337460899366403,492.207899282245,1266.9128858042377,2.2270455244042653,773.8232708705135,45.45270948510994,1000.0,1
16.608318567276,981.1630249023438,689.8701190948486,1.437614614267433,459.70718380941935,1296.7777194461398,2.239996744280228,800.1581278560456,45.97310960645046,1000.0,1
16.774914741516113,985.2200150489807,720.8703756332397,1.4424984389767062,445.43071290086704,1316.4181978963811,2.2453176297659456,803.7721687866019,45.99815134433143,1000.0,1
16.908303022384644,988.299310207367,744.3358898162842,1.4468366107891661,421.92822471171985,1337.6848122550027,2.2548149388431478,820.2677308322607,46.29374813552983,1000.0,1
17.0665864944458,992.5318360328674,771.7462778091431,1.4537890790944563,393.7574101750771,1357.9086533624318,2.2711607909111553,837.924306590757,46.83194938048025,1000.0,1
17.233231782913208,996.5741634368896,801.8865585327148,1.459984348535508,378.11009327872534,1373.164853110966,2.277178316106964,841.9362778339213,46.82176538539508,1000.0,1
17.36667513847351,999.3742108345032,826.8703818321228,1.4628175409681614,367.93600243576464,1387.53325590892,2.277986003536614,844.4270657634461,46.70571249734036,1000.0,1
17.533324241638184,1002.846360206604,852.5393605232239,1.468495259928674,342.9608961124431,1405.092104362223,2.2859041171424312,860.6761065852662,46.834077654960026,1000.0,1
17.66663408279419,1005.3279399871826,877.1673440933228,1.4758151671216844,313.4144282877178,1423.6497667843798,2.298917373127922,881.6957218806115,47.160282512065066,1000.0,1
17.966708421707153,1006.4271688461304,891.0223841667175,1.5689433163284565,284.6086652421954,1436.3670509776932,2.3624888023922206,904.6672082949607,45.46680720311116,1000.0,1
18.06663727760315,1006.4612627029419,893.8682675361633,1.6093457594968645,283.71204525846645,1438.844479421152,2.4233576664368774,905.1881035658355,46.63944674105866,1000.0,1
18.258350372314453,1006.4691305160522,897.2395062446594,1.6920080536997977,262.7335245475552,1445.4744688465357,2.493819141766223,923.961160333273,45.940391312998536,1000.0,1
18.349965810775757,1006.2639713287354,898.5161781311035,1.733416194510751,253.48824338795862,1453.5337711431987,2.5517872978529716,935.2624365009566,46.889210296973786,1000.0,1
18.466639518737793,1005.9374570846558,900.6208181381226,1.7832367285257318,259.85961296382004,1447.2258556552208,2.6046301586911573,924.8833529300127,47.062376868252606,1000.0,1
18.608204126358032,1005.1060914993286,903.8916230201721,1.8527800402790384,257.36009046053437,1444.9381386950568,2.6620442868196603,922.9601368387703,46.36742583761217,1000.0,1
18.708215951919556,1003.8009881973267,911.0832214355469,1.8950545140481505,254.8217928221327,1453.9072582413328,2.7117801078522947,925.0014973171677,46.794929545293485,1000.0,1
18.849915027618408,1003.3843517303467,910.1014137268066,1.959583074509035,245.3734518862706,1452.5867954020493,2.7772516209212665,932.1324549728755,46.848956750017734,1000.0,1
18.94158172607422,1003.0759572982788,911.3179445266724,1.9907852591122563,245.55063184269844,1453.2461872049348,2.8285803980723823,931.4133555618218,48.00212555899154,1000.0,1
19.108347177505493,1000.5563497543335,913.1727814674377,2.0598690067915255,251.7365290789052,1456.8164353490781,2.8733455563105537,925.3537411401985,46.60877302030523,1000.0,1
19.224931478500366,999.3478655815125,914.7161245346069,2.1110308319256363,251.3776283304649,1456.9950650670216,2.923036018765954,923.8646682054394,46.52447014868205,1000.0,1
19.341610431671143,998.1030225753784,915.7243967056274,2.163258938358632,236.05950566876984,1460.7020992668658,2.98618082180597,936.8623260374591,47.14995079048911,1000.0,1
19.483265161514282,996.575117111206,917.3192977905273,2.222111433325167,236.67341326928494,1461.436555107417,3.0387159681759135,934.6198099825988,46.78799337819153,1000.0,1
19.599985122680664,995.3919649124146,917.8334474563599,2.2764034822623977,220.30214032845254,1466.436591821437,3.10124533400021,949.5944640639218,47.25995687033224,1000.0,1
19.724907875061035,994.111180305481,919.1349744796753,2.3297221416175775,223.63798587683758,1468.1773740164697,-3.1335315277551694,946.0848269696535,46.97862233558113,1000.0,1
19.841559648513794,992.9797053337097,919.3309545516968,2.381708942222486,202.5314833909887,1470.3991097375965,-3.0649598584184488,963.5790072601209,47.92886531769248,1000.0,1
19.983250856399536,991.1653995513916,920.7581281661987,2.443430936619583,175.8145880605274,1476.4326398735313,-2.985087128159466,986.6970704121875,48.968825877635275,1000.0,1
20.099867343902588,990.1031851768494,920.7693338394165,2.4996762544724294,176.72523286902086,1477.503041087535,-2.9337581607598935,985.6653154528213,48.68713974605543,1000.0,1
20.199856758117676,988.9485239982605,921.7967987060547,2.5442779790028607,157.32236041584264,1477.73170421777,-2.8672759917197093,1000.3327921852458,49.94079687033447,1000.0,1
20.324912309646606,987.8244996070862,921.8444228172302,2.6041248426457364,175.17279413112198,1475.8021857562776,-2.8342869291121247,983.4998716489124,48.401958224010194,1000.0,1
20.458290815353394,986.2378835678101,922.6921796798706,2.6626855878193476,168.12843395099975,1478.3802220180446,-2.777052385794704,988.985476106678,48.32597245486808,1000.0,1
20.58326029777527,985.4987859725952,922.7575659751892,2.7251899644512636,164.36261661312864,1480.6261590320667,-2.7173081204098635,992.7144482425942,48.16782972942409,1000.0,1
20.68324375152588,984.440267086029,922.8631258010864,2.7696654668146197,165.0294276758541,1481.4521929246232,-2.6700101451328786,991.6934353180072,48.329545515164995,1000.0,1
20.799911737442017,975.9543538093567,925.1075387001038,2.8014398899745903,157.41936698588495,1467.9009640588672,-2.6181808036523724,982.1528533109297,49.478607693411305,1000.0,1
20.983232975006104,938.3760690689087,940.4244422912598,2.8186056542042794,116.1119209660731,1456.6167788418695,-2.585144430280661,970.8619147792646,50.38792661555089,1000.0,1
21.15828037261963,913.7126803398132,950.2716660499573,2.8425485416697467,87.80642715787413,1442.124998670609,-2.564922585199705,961.2704301366347,50.17472659152914,1000.0,1
21.31658697128296,887.1436715126038,959.1519236564636,2.8541205166947656,44.226898163260884,1430.7233106344213,-2.534911702272248,965.8614081792389,51.23119819316922,1000.0,1
21.47498631477356,862.3695969581604,967.4261808395386,2.8728749360554158,4.884690644458264,1419.81147634443,-2.5013528585559417,969.5013254992829,52.079429226869,1000.0,1
21.65827989578247,832.0308923721313,975.9113788604736,2.892021851490891,-8.390525442843687,1397.8735390483314,-2.4902040597953117,940.4042876085456,51.6211708973472,1000.0,1
21.799914360046387,807.3052167892456,982.5786352157593,2.9038263277752225,-30.90316800287761,1381.6600043109868,-2.4793365582017066,928.3637409414164,51.567486202057935,1000.0,1
