time_stamp[s],x_true_pose[mm],y_true_pose[mm],theta_true[rad],x_pose[mm],y_pose[mm],theta[rad],p_err[mm],a_err[mm],num_particles,valid_pose
6.866878271102905,321.5300440788269,20.304854959249496,0.05051310600302891,305.91122386403885,-1.572095125661047,-0.01374844063953164,26.88026208799943,3.681915407601805,101.0,1
7.183459520339966,373.1708526611328,24.54948239028454,0.05167007624341461,357.47668645713355,-1.0188779369851662,-0.006069919792555803,30.0007983671077,3.308258081963208,101.0,1
7.525121688842773,430.76232075691223,24.891449138522148,0.05273072876947049,415.54922597957,-1.6666967523630745,0.00030033964471858706,30.606753598935335,3.004040015076894,101.0,1
7.816761493682861,478.82717847824097,27.371609583497047,0.05167504067837193,465.3278915904693,0.1464082332274819,0.007629340220159449,30.38819400755965,2.523632741953011,119.0,1
8.116769075393677,529.9819111824036,30.00600077211857,0.052087949562623574,520.3456089884774,0.7675982295518478,0.010033275610977508,30.785426799280195,2.4095553262280798,119.0,1
8.416858434677124,581.1962485313416,32.60180354118347,0.053162062003266695,570.2201128161898,3.7312558809611085,0.017302270203769204,30.886632665905815,2.054614724329046,106.0,1
8.716817617416382,633.677065372467,35.84698587656021,0.05433589212147467,618.839954586589,4.995715290646098,0.01044998234574084,34.23362021810881,2.5144774102414695,101.0,1
9.016845703125,682.6022267341614,35.15799716114998,0.0463600083753511,667.3360844015781,4.7887798691367935,0.005443926989900348,33.99035834833467,2.344318777600118,101.0,1
9.31684160232544,736.2686395645142,37.7446785569191,0.04227801714965681,716.7913879161663,2.7153694816531306,-0.0032200280015349846,40.080117590441034,2.60684596325895,101.0,1
9.616911172866821,787.6855134963989,39.50135409832001,0.040266540160738475,760.3490781238421,2.916379731970373,-0.001042952553329752,45.66991403828603,2.3668595863425335,101.0,1
9.975182056427002,804.8896193504333,40.20917788147926,0.12755431194828412,779.5469766562395,5.9327526736777205,0.06268492598167218,42.627724121181856,3.7167420354920337,101.0,1
10.116822957992554,805.9633374214172,40.794070810079575,0.17763419805341474,769.7735583607896,7.024606435508162,0.12023567833108786,49.49825080346265,3.2886929303877475,101.0,1
10.275135040283203,808.4620833396912,41.359517723321915,0.2345880972637492,776.7150989496541,5.691270763086222,0.1761722307448954,47.75033883730688,3.3469826081298955,101.0,1
10.416788101196289,809.9896311759949,41.9149324297905,0.28807214413190496,785.7550748548084,5.866809412985619,0.22060939906160537,43.437091213840006,3.8653305668951674,101.0,1
10.575145721435547,812.3740553855896,42.37750917673111,0.3455189145738116,795.2721695683606,5.57024157781964,0.2736662311804342,40.58632092963609,4.116855505130264,101.0,1
10.71679162979126,813.7264847755432,42.98701137304306,0.40045986392469113,804.3589075310648,9.701381726979132,0.332236155255339,34.57867325919546,3.9089305694839624,101.0,1
10.875109195709229,815.7243132591248,43.871358036994934,0.45862493852747954,795.7726292719829,9.720769002043891,0.397325912504203,39.5516425114924,3.5121754793963476,101.0,1
11.008448600769043,816.5515065193176,44.85158249735832,0.5104229168206023,796.083240997611,10.65904914612833,0.4612604319643654,39.85071179341792,2.8168028926381967,101.0,1
11.175156116485596,818.2365298271179,45.778024941682816,0.5735720762388502,785.2242285635996,9.917457639985638,0.5238802458530368,48.74210009748089,2.847132157387048,101.0,1
11.308446168899536,818.8105225563049,46.991411596536636,0.6260299958839529,783.909549619566,13.624616665265714,0.5751271466459545,48.28478969527023,2.9165184265280253,101.0,1
11.450148582458496,819.8435306549072,47.89086803793907,0.6791563083977542,785.854774270274,14.239781410197672,0.6357441579113128,47.829187655674254,2.4873330024598976,101.0,1
11.591870784759521,821.035623550415,48.75531792640686,0.7346502082333296,792.2322172308344,16.80255891998822,0.6954405743454929,43.018775246781786,2.2465465380261733,101.0,1
11.750128030776978,821.8498229980469,50.08639395236969,0.7985176270368698,799.3648578557165,21.095311144015316,0.7627467689619508,36.688643199942284,2.049519197254318,101.0,1
11.866849184036255,822.9411840438843,51.01199448108673,0.847828300288389,805.6107983273141,23.04595257144461,0.8089933908704408,32.90048281069684,2.2250764074212843,101.0,1
12.025137662887573,823.4333992004395,52.280787378549576,0.9114748094654106,812.5798880741337,23.22864774509988,0.8618874984063781,31.0133119974359,2.841143641084953,101.0,1
12.15019941329956,824.0174055099487,53.383633494377136,0.9622091052433006,811.7916805529816,23.202140715216398,0.9108388534056246,32.56364317919513,2.943298622822994,101.0,1
12.266834735870361,823.8239884376526,54.09214645624161,1.0089890172875797,804.8501262134947,22.03449232406369,0.961644279452218,37.251854130494884,2.712653660119573,101.0,1
12.391824960708618,824.7349262237549,55.143699049949646,1.0598613163695403,809.2829666281991,23.8140495752408,1.0023864650415548,34.932935627439214,3.293066409235442,101.0,1
12.525195121765137,825.1771330833435,56.17886781692505,1.1169018561956805,810.1092004392435,22.09062003193167,1.0514702350137624,37.269977612258366,3.748955740422709,101.0,1
12.66692066192627,825.5692720413208,57.49721825122833,1.177134870918319,808.4080329102517,23.405498462032092,1.1055799289109165,38.16744013814409,4.099796180327522,101.0,1
12.908457517623901,841.7205810546875,96.35299444198608,1.2062000168486395,821.9103300380484,56.710563136388636,1.1664576339598522,44.31668314710909,2.277070807320452,101.0,1
13.225264072418213,860.3535890579224,143.9090371131897,1.2267875107082375,843.9998962445412,106.24737222046413,1.1901337682322313,41.05903397702376,2.100104747234556,101.0,1
13.5502028465271,877.8147101402283,195.13320922851562,1.2466486694264052,866.717749260762,164.11690575236412,1.212534466903705,32.9416699953893,1.9545998260052642,101.0,1
13.866847038269043,895.7427144050598,251.0855793952942,1.267193096022983,885.8572419308191,219.54772083882236,1.2270048887758682,33.05085609128748,2.3026146614567407,101.0,1
14.208451271057129,913.0544066429138,304.27053570747375,1.2825983412552424,896.8112813716123,269.4417610523255,1.2521410550144147,38.430231102067204,1.7450739570212979,101.0,1
14.525145053863525,927.6794195175171,357.06111788749695,1.30359335415002,912.6443398075285,321.7741624208403,1.2853892519504468,38.356522887137736,1.0430182258603593,101.0,1
14.841915369033813,943.1482553482056,411.96298599243164,1.3190441412460439,931.4258429547383,373.8838118232207,1.286752860446548,39.84267131771685,1.8501541048829484,101.0,1
15.141901969909668,952.6515603065491,457.0530652999878,1.3468354270394338,942.8833204508974,418.9401486204254,1.3160288152144146,39.34479543345989,1.765088838671415,106.0,1
15.45852279663086,966.0664796829224,512.6506686210632,1.3610132967759427,956.0209123647189,471.74787153596225,1.338275212070476,42.11831231340476,1.3027962878342145,106.0,1
15.758512496948242,977.6189923286438,566.0400390625,1.3769561456468944,973.0077078987148,519.6372056633727,1.352811759077518,46.631393841068814,1.3833714493576192,119.0,1
16.05847692489624,987.1083498001099,615.2752041816711,1.3882038236366714,980.912609498272,571.2018197045911,1.3634199159190519,44.50674574884505,1.4200133120613072,101.0,1
16.358511447906494,998.4735250473022,667.1175956726074,1.4084845743476369,996.3929777603028,631.5000987421611,1.3805288179736386,35.67821134255186,1.6017468533260508,101.0,1
16.658461570739746,1005.44273853302,721.7670679092407,1.418347698987421,995.5129152424989,678.71171946715,1.393045531565864,44.18556800642961,1.4497074057886243,101.0,1
16.9584321975708,1014.8859024047852,774.5287418365479,1.429745326404884,1007.098532827551,736.4125837096249,1.3952627713718422,38.90352985641571,1.9757048702208944,101.0,1
17.258443117141724,1022.9613780975342,827.993631362915,1.4435852617193548,1014.089589777709,796.1542886718593,1.4093546614985073,33.05226725945247,1.9612689228541427,101.0,1
17.55843949317932,1028.7220478057861,878.2409429550171,1.455698337357505,1025.737515560427,841.1406144468898,1.4078462974609454,37.22018011958769,2.741719927164498,101.0,1
17.91695237159729,1032.591700553894,907.3308706283569,1.5460751008236964,1026.3333892436108,873.914708807661,1.4494689763772155,33.997151811340856,5.535123205898959,101.0,1
18.01698350906372,1032.544493675232,909.3616008758545,1.5856026777794299,1022.2863434392922,881.2445602559023,1.5012424748051199,29.929878374078804,4.833483589294939,101.0,1
18.133646488189697,1033.170223236084,912.3659133911133,1.6347788623843285,1022.0436825803347,881.4925199535153,1.5572651947580793,32.817165162712655,4.441206009563917,101.0,1
18.250245571136475,1032.6794385910034,914.0445590019226,1.68661255747054,1019.4669320036489,881.7386770244253,1.598035055210672,34.903299853522,5.075117039300951,101.0,1
18.375280141830444,1032.668948173523,916.3398742675781,1.7406399499771088,1016.575080881509,886.5035517798224,1.6690766933176509,33.90012837743117,4.100272574798423,101.0,1
18.533647775650024,1032.6189994812012,919.284462928772,1.8125980854328367,1015.4377845827904,892.8802210001671,1.7333342021619726,31.50203385830296,4.541485979238123,101.0,1
18.633628606796265,1032.1087837219238,921.0274815559387,1.8486562417888608,1015.1983537881084,907.3527782324043,1.7925790869959208,21.747647034407297,3.2129842967372757,101.0,1
18.77528738975525,1030.8187007904053,923.5732555389404,1.9067807346004206,1015.6200587161011,905.0818775362947,1.8476429689522431,23.935951648922206,3.388344381474313,106.0,1
19.150256395339966,1026.788592338562,929.9988746643066,2.071554782477257,1017.1611434881916,906.18695146654,2.0046523818111286,25.684537327793873,3.8332251974623914,101.0,1
19.25028133392334,1023.5426425933838,936.5315437316895,2.111158182790299,1018.0478545371909,909.4592440236086,2.06612196980941,27.62430283765794,2.580384929057232,101.0,1
19.408710956573486,1023.007869720459,935.4377388954163,2.1822395235147436,1014.1598644968028,908.9698469391598,2.1199018395090414,27.90764234122822,3.5716861981469097,106.0,1
19.508678197860718,1022.0274925231934,937.9242062568665,2.2197473595336907,1016.4943345491031,908.7339924754236,2.1584902820659826,29.710005347905497,3.5097720042056095,106.0,1
19.650323152542114,1020.7608938217163,938.6714696884155,2.28649025619779,1011.4360943096732,905.3860096345861,2.203666120435111,34.56694572760042,4.745473421020046,101.0,1
19.79197335243225,1018.9770460128784,940.2244091033936,2.345253341587369,1010.7944569631695,910.9871265652986,2.265477631408091,30.36072222080379,4.570811500931481,101.0,1
19.908623456954956,1017.6562070846558,940.3727054595947,2.4027295570950384,1003.4016453124719,916.934443992684,2.3153573916404584,27.432546945339872,5.006056327466166,101.0,1
20.525293350219727,1011.3856792449951,943.3329701423645,2.6830278820587163,993.0013387591902,963.2994464669556,2.6062626239489246,27.14118921341628,4.398325302923482,101.0,1
20.625303506851196,1010.4166269302368,943.7528848648071,2.730950727674054,980.9946754578524,976.4582581190963,2.664136365136064,43.99196140371234,3.8281809842838097,101.0,1
20.7919442653656,993.8095808029175,949.7016668319702,2.768816606836032,965.8270292885745,981.6481069862123,2.7131567937096746,42.46879122110054,3.189072380627131,119.0,1
21.10873317718506,940.0599002838135,972.3681211471558,2.8043039537659595,911.9229947793685,1008.4210214138693,2.7457681818937227,45.73288826443895,3.3538526788197656,101.0,1
21.450283527374268,886.3511681556702,992.3406839370728,2.8382890762455593,853.97014737472,1039.9115067660268,2.7936767261548123,57.54575302696164,2.5560993743598743,101.0,1
21.767014026641846,835.1906538009644,1009.3955993652344,2.871365210345534,796.6731619010249,1058.4387006015204,2.8288237439269532,62.36042784598663,2.437446480082189,101.0,1
22.067105531692505,783.7164998054504,1024.2705345153809,2.8986887787844506,745.178240977024,1079.8894760302728,2.850269653677042,67.66582629927579,2.7742115163704213,101.0,1
22.36709952354431,728.1026244163513,1037.329912185669,2.9216626101840215,696.8909121252474,1087.0327771093855,2.8787210063158137,58.69025273218597,2.460372667170956,101.0,1
22.667073726654053,678.0712604522705,1042.859435081482,2.938162509812706,645.2184961763242,1102.667289208872,2.8910171925434756,68.23696605135716,2.701227703332139,101.0,1
22.967034578323364,627.0999312400818,1058.2890510559082,2.974973291923196,601.1617675277291,1116.3099088541715,2.9246279967934736,63.55476596145323,2.884572929273639,101.0,1
23.26709794998169,573.4673142433167,1066.4888620376587,2.9953851582257847,545.1998122128072,1127.752093665914,2.9501402517663613,67.47025433909454,2.592342184589155,101.0,1
23.558724403381348,522.1046805381775,1074.3188858032227,3.0236545174557894,494.21810405033597,1139.2530713211563,2.968685623191904,70.66901440581763,3.1494856458215073,101.0,1
23.858680963516235,464.3385410308838,1080.3313255310059,3.0426915306194813,433.0262376916394,1145.268708651248,2.993485827007276,72.09246886404968,2.819279144950982,101.0,1
24.158709287643433,411.97168827056885,1086.4112377166748,3.058993580528661,377.71307543307796,1151.473505634608,3.0193836145844615,73.53061444170055,2.269483875259568,101.0,1
24.442047357559204,361.49924993515015,1090.9929275512695,3.078629509263758,326.10458080831654,1158.0597207535889,3.031897934314502,75.83361624662703,2.6775220145916565,101.0,1
24.717029333114624,312.1959865093231,1097.1089601516724,3.0986705798006278,275.20853908156374,1160.6345630542116,3.059851297575121,73.5090027911709,2.2241810352487463,101.0,1
25.000375747680664,260.7300281524658,1098.8839864730835,3.1078748603532738,232.92386638646042,1158.0664857343381,3.069980185552222,65.3892258018526,2.171204932121008,101.0,1
25.275312185287476,210.30548214912415,1100.7812023162842,3.1204950495832575,174.8352485710618,1158.632239857004,3.0802173892354134,67.85926623991794,2.307739946592893,101.0,1
25.533775806427002,161.75787150859833,1102.106213569641,3.1351318348593424,122.62174733383975,1161.6523512888566,3.101031960435801,71.25572771853433,1.9537788863950263,101.0,1
25.91711735725403,128.97267937660217,1103.135108947754,-3.0522696503925375,107.5007731548951,1157.7429502522355,-3.1180358451212,58.6775859142929,3.768125392587885,101.0,1
26.017081260681152,125.97915530204773,1102.6736497879028,-3.0096555764716295,102.06713948898252,1159.6457414526244,-3.064684937153305,61.786760142426296,3.1529501163631557,101.0,1
26.175477504730225,122.41575121879578,1101.5576124191284,-2.9403390997331345,102.24547063611716,1157.8875682322177,-2.997851805912113,59.83230014539453,3.295235332431434,101.0,1
26.292115688323975,120.18314749002457,1101.1402606964111,-2.8888608734339827,109.80736899487573,1155.3069147032606,-2.9520297333213636,55.15145678654499,3.6193090682001703,101.0,1
26.417076587677002,117.78110265731812,1100.2655029296875,-2.8350986368307485,96.74796880225682,1156.0312775505304,-2.904257663801554,59.60045586090403,3.962520360658589,101.0,1
26.5504367351532,115.80458283424377,1099.207043647766,-2.771969281044213,97.78663611304128,1153.9238031092855,-2.8471700350781144,57.60703229656827,4.308685822343942,101.0,1
26.675450563430786,113.29368501901627,1098.2266664505005,-2.7171126920114292,94.03685907256238,1150.9850934075043,-2.7866804675987873,56.16295006950338,3.9859399312688586,101.0,1
26.792061805725098,111.43933236598969,1097.7065563201904,-2.6605144615601177,95.35690788768503,1148.8555278575914,-2.7178551144475698,53.61773649114838,3.28537740497564,101.0,1
26.892051935195923,109.89096015691757,1096.824288368225,-2.617527132201483,80.21861967688915,1148.731408370709,-2.663649348670951,59.78960525471796,2.6426083454893,101.0,1
27.050459623336792,108.02441090345383,1093.9511060714722,-2.5480846660097156,71.75464605472044,1146.3658942649429,-2.60736013454297,63.740143265832195,3.396234175615992,101.0,1
27.150521516799927,106.5388172864914,1092.703938484192,-2.5027693100246644,65.55332536501261,1141.0915926752846,-2.5590976507716956,63.41274025117012,3.22737619177967,101.0,1
27.275493144989014,105.17263412475586,1091.3896560668945,-2.4439667118498547,63.22978068393263,1143.0891311618398,-2.501678653152405,66.57355841361674,3.306650664142878,101.0,1
27.392085790634155,103.46253961324692,1089.8921489715576,-2.3911874419268364,51.95779197270465,1140.1127065381474,-2.4518650243075006,71.9363846173486,3.4765693814694263,101.0,1
27.533778429031372,102.33152657747269,1087.993860244751,-2.3247661774124277,38.52205290074154,1136.7048006110463,-2.3898713222967563,80.27704928726654,3.7302500264597653,101.0,1
27.65045142173767,100.9036973118782,1086.4890813827515,-2.26921201703482,30.80198534907438,1138.7912616929473,-2.328504576764876,87.46295264462631,3.397213429059564,101.0,1
27.775453329086304,100.19540786743164,1084.761619567871,-2.213226141446937,28.471385184238105,1133.4216765210526,-2.2746088041225794,86.67258258841797,3.5169675065895154,101.0,1
27.892102479934692,98.75615686178207,1082.939863204956,-2.159859872303543,24.014035116741184,1128.8289329742715,-2.2212545187226636,87.70513945740933,3.517654124513572,101.0,1
28.03379797935486,97.91409224271774,1080.8945894241333,-2.092845864149732,22.18693689172498,1129.6854185580512,-2.153126046376391,90.0841110581026,3.4538000298670894,101.0,1
28.150423765182495,96.88271582126617,1078.9376497268677,-2.040791258938589,21.28304144381837,1119.3823245476813,-2.0983749131217944,85.7384539593378,3.2993003536385257,101.0,1
28.267114639282227,96.65746986865997,1077.1598815917969,-1.9828639969980053,32.116222009204314,1126.585206564388,-2.036558898423487,81.29228391367741,3.0764912330510903,101.0,1
28.392136812210083,95.32857686281204,1073.2475519180298,-1.9249342491147041,23.27286369121611,1117.8463693266035,-1.9678412133263814,84.74125509402491,2.4583879610479755,101.0,1
28.55052375793457,96.23390436172485,1074.8382806777954,-1.8563869869260003,24.052756317186056,1109.4882049321118,-1.9219712061228287,80.06706803585035,3.7576989626391364,101.0,1
28.650546312332153,94.72383558750153,1071.6849565505981,-1.806141079711642,17.806183858415046,1096.8570692791213,-1.868279201825686,80.93182567281255,3.560252144003251,101.0,1
28.767205238342285,93.9139872789383,1064.0050172805786,-1.774050203997886,11.414395884166595,1080.9319719460875,-1.8088433564652433,84.21819503262037,1.9935007923347576,106.0,1
29.067164182662964,80.89007437229156,1001.8085241317749,-1.7424899355971586,4.1032333579431945,1032.5347414127987,-1.7851830787321439,82.70622335328518,2.4461369157825814,101.0,1
29.367090940475464,71.74055278301239,947.0030665397644,-1.7138716744162799,-8.137398491546403,980.6395304361808,-1.7600633772956207,86.67121092540312,2.6465896235085213,106.0,1
29.68384027481079,63.949741423130035,892.1960592269897,-1.6707553647279958,-5.7444251808351146,924.4127967061361,-1.7235053616222173,76.78017343312975,3.022352191367095,119.0,1
29.983872652053833,59.30222198367119,839.3440842628479,-1.626180153509938,-5.275702881898167,863.8561034166027,-1.6701990914978588,69.07349320062771,2.5220993653559525,101.0,1
30.2837815284729,57.31964111328125,784.0269207954407,-1.5958068136643286,-10.041389253909772,815.6050330935052,-1.6323895098569774,74.39546752617933,2.096034095048079,101.0,1
30.583871126174927,55.47545850276947,736.1916899681091,-1.5722724059706061,-19.165283786387246,758.0427017407853,-1.6235693526576371,77.77343457097636,2.9390985470744666,101.0,1
30.883888959884644,55.064186453819275,684.4216585159302,-1.5559849227062412,-22.927402706527452,716.3026006758987,-1.6004095558979734,84.25605291469316,2.5453439883030455,101.0,1
31.14221978187561,54.3208010494709,642.3835158348083,-1.538324372445322,-20.861693238700397,675.1921630027384,-1.5759241188843414,82.02935313886509,2.1543067817178594,101.0,1
