time_stamp[s],x_true_pose[mm],y_true_pose[mm],theta_true[rad],x_pose[mm],y_pose[mm],theta[rad],p_err[mm],a_err[mm],num_particles,valid_pose
4.916590213775635,55.19196018576622,9.828343987464905,0.07186669436858947,99.96456492984761,35.58239179482091,0.009133246098661696,51.65130312037943,3.594361820169137,1000.0,1
5.116583347320557,87.86755055189133,12.115435674786568,0.12906584812232216,142.49603687605332,58.47761280506007,0.07325938590815458,71.65000339377528,3.197474754428106,1000.0,1
5.333214282989502,120.68319320678711,16.03292115032673,0.20433846689496749,215.3589084228831,30.067527922067878,0.11536327545988159,95.71029849977856,5.0979029505989715,1000.0,1
5.449935674667358,139.69233632087708,20.258357748389244,0.252436969638551,256.02199699080757,41.9307183789366,0.16966287000870614,118.33123495882933,4.742606561785499,1000.0,1
5.608201026916504,161.37903928756714,26.52609720826149,0.331228741307688,276.0337092636769,26.69254046346234,0.22741260846080213,114.65479078820843,5.948226257496035,1000.0,1
5.7082226276397705,175.6235659122467,31.55553713440895,0.3836203636854345,316.5510953305919,40.802046035870305,0.28874398563718107,141.23054370363147,5.436016037652573,1000.0,1
5.80822491645813,190.09774923324585,37.46964782476425,0.43983598412537817,334.40441081189596,42.12182114511013,0.3268532122305264,144.3816307311203,6.473435987264303,1000.0,1
5.908255338668823,204.1737139225006,44.72779110074043,0.5012203410395799,346.65872408643634,44.6667096610251,0.3803870972847956,142.48502325633788,6.923234892024654,1000.0,1
6.008253574371338,217.99403429031372,53.182557225227356,0.5666479713544657,369.2652725902026,37.6967672480888,0.4407215581917552,152.06182041524363,7.215052003443967,1000.0,1
6.108245134353638,231.66751861572266,62.301114201545715,0.6355106155191509,388.6560876073093,37.91668746995304,0.5007314894322525,158.87105167731022,7.722275091240849,1000.0,1
6.2082390785217285,244.47126686573029,71.96777313947678,0.7055325636330007,389.87775968136344,57.64773695541924,0.5664228726129468,146.10992981058985,7.970398184818015,1000.0,1
6.291547775268555,254.22629714012146,80.73391020298004,0.7684213099746039,418.9644291774473,69.1889302869376,0.6114700779070181,165.14217725465903,8.99264318685101,1000.0,1
6.349917650222778,260.91110706329346,86.76788210868835,0.8147140301466713,435.53964358716826,52.70669947656343,0.6625151491213915,177.91933546067793,8.72035352936228,1000.0,1
6.433215379714966,269.95834708213806,95.699742436409,0.8784046847040621,446.9949910054943,59.7464118033162,0.7144670845803001,180.65053355929427,9.392932590594926,1000.0,1
6.508254289627075,276.38524770736694,106.79888725280762,0.9352719345705942,451.59749488157325,58.972265383251475,0.7703169432731104,181.62245819085447,9.451224810963046,1000.0,1
6.591575384140015,285.11667251586914,116.69301986694336,1.0052504141451393,462.50243168020745,58.210680975622665,0.8291666027952855,186.77765261537022,10.088859230924403,1000.0,1
6.649906396865845,289.13596272468567,125.01583993434906,1.0520324989772223,475.5258902872472,63.56676291758871,0.885626612518931,196.2579785970208,9.534354980193266,1000.0,1
6.733201742172241,294.9581742286682,137.88415491580963,1.1180815689810282,455.94291719155706,80.51312352511374,0.9572581555338942,170.9020851530478,9.214502837408268,1000.0,1
6.80822229385376,300.4152774810791,149.1614133119583,1.178547806568632,441.4379976162098,84.94041717870584,1.021373362083601,154.95723261164235,9.00543231630553,1000.0,1
6.891543865203857,304.7173023223877,161.09046339988708,1.2493752506328977,411.3131787613037,101.4037941772337,1.0967093884695003,122.16865128450539,8.747109577688635,1000.0,1
6.96659517288208,308.10990929603577,172.3652482032776,1.312881877512935,393.6343141583332,118.19399490801716,1.1684271638708568,101.23709058753828,8.276645422461959,1000.0,1
7.024950265884399,310.35882234573364,181.0561865568161,1.3635399605019933,395.2085390080754,129.14542486579447,1.2361212419365917,99.46960137158342,7.300554804762744,1000.0,1
7.108308792114258,312.75367736816406,194.46438550949097,1.4344865668290638,376.4031444805937,139.25611319768905,1.3052966390811247,84.2567979177368,7.4020376155569565,1000.0,1
7.19158673286438,314.5979046821594,208.10021460056305,1.5065044123595535,368.0962326408273,152.01437990853293,1.3724615438163736,77.50930232865544,7.680090641351109,1000.0,1
7.266598701477051,314.74199891090393,221.1942970752716,1.5694327090415434,362.52201780884053,179.50846490163534,1.4497702522760452,63.408507393690854,6.856153738829733,1000.0,1
7.324968576431274,314.90448117256165,231.39598965644836,1.6177160701885638,341.912547203463,191.07184447872245,1.515082606964874,48.53320837368826,5.880464279528575,1000.0,1
7.408331871032715,313.2871091365814,245.32252550125122,1.684683189109221,341.4718926579583,200.74954092092491,1.573134002289714,52.736448273891966,6.391297612874108,1000.0,1
8.008184671401978,281.19438886642456,334.1579735279083,2.1503609471859058,240.3221638501852,325.4600373848178,2.0739738183532412,41.78747265541891,4.376660091233759,1000.0,1
8.09157395362854,273.1455862522125,345.8223044872284,2.2061168994789018,232.41687510013733,337.4665484991533,2.125596001271581,41.57699568561234,4.613507629882005,1000.0,1
8.166499614715576,266.65738224983215,355.3924858570099,2.2570748247486687,224.35172095414364,346.8228503773689,2.176047630882768,43.164888855636335,4.6425162343044315,1000.0,1
8.266483545303345,258.11073184013367,367.73958802223206,2.3259824189034974,216.55182118241564,359.58837563447815,2.239107692569071,42.350741651669594,4.977555165316654,1000.0,1
8.34987735748291,248.31955134868622,377.3013651371002,2.3762154432152043,208.44714236310037,368.1186157083907,2.2958267260414047,40.916156776807526,4.605934214529555,1000.0,1
8.54157829284668,224.3916392326355,399.02931451797485,2.477257138720261,182.47580770800377,396.94575070464373,2.4086451575269683,41.96758475973491,3.9311769464066435,1000.0,1
8.649848699569702,209.65172350406647,409.66662764549255,2.5292953398172573,170.0555303159097,407.10858650664454,2.460310962673158,39.67873598619129,3.952513662695637,1000.0,1
8.766491174697876,192.91403889656067,421.1548864841461,2.5805990425349083,150.31272988206626,421.53432488254447,2.5188343918113154,42.602998758850546,3.538853809561522,1000.0,1
8.88315486907959,176.30144953727722,431.66273832321167,2.6266398364109937,131.79727421361025,434.43244909383446,2.570771810497344,44.59027830135838,3.2010020945796422,1000.0,1
9.041516542434692,149.2638736963272,446.13751769065857,2.6781682232345383,106.1259063115883,448.6967487279011,2.626354849755209,43.21381600355127,2.968687622700642,1000.0,1
9.241495609283447,117.57420003414154,462.75725960731506,2.7295531127454487,72.5571144278042,464.88937259069525,2.6798253639670335,45.067548216673636,2.8491901296900224,1000.0,1
9.566465854644775,64.08121436834335,483.16454887390137,2.7554239530185023,19.32172730920511,489.9191650362148,2.7186776265252077,45.266284597891946,2.105409420675541,1000.0,1
9.883147239685059,11.9353998452425,505.2598714828491,2.7503016962184925,-31.54125971627534,517.1969400635038,2.7118474258860736,45.08562445976959,2.203267394302735,1000.0,1
10.224812269210815,-40.6554713845253,530.876874923706,2.6897346890431058,-91.10912287432757,545.0313794116653,2.664020992502173,52.401535721332486,1.473286287475581,1000.0,1
10.424819946289062,-71.23523205518723,548.1798052787781,2.627052608635331,-119.93093099722273,561.3381524355295,2.6075606151540986,50.44217675072069,1.1168089607711247,1000.0,1
10.558156728744507,-90.76368063688278,560.4788661003113,2.576785359345841,-138.65595207178055,574.1212247771668,2.5504566587302855,49.797425771438235,1.5085234253348343,1000.0,1
10.683189153671265,-109.9516898393631,571.1963772773743,2.5051631957555465,-161.20938499185283,588.5225287248359,2.4917181957895975,54.1068095190055,0.7703417536024101,1000.0,1
10.783209085464478,-125.6614476442337,582.6050639152527,2.4569837969967985,-179.07821949873286,604.6001631627756,2.4332097949737532,57.76794878013238,1.3621499780559736,1000.0,1
10.916534900665283,-137.92848587036133,590.181827545166,2.3969917039746087,-190.18085783612725,619.2396240846834,2.3803623827196554,59.78850989764464,0.9527899240760184,1000.0,1
11.01656460762024,-148.83558452129364,600.4320383071899,2.3236784645418767,-202.66649141209967,632.286690719056,2.317509182612516,62.5498634448344,0.35347381717868886,1000.0,1
11.099866151809692,-161.62815690040588,613.6826872825623,2.2706749307120093,-209.17513778999904,642.8149796476092,2.2621000764381978,55.76204668193152,0.4913029598291182,1000.0,1
11.199847221374512,-174.51125383377075,624.8007416725159,2.208850180341613,-222.61237146523942,658.5922945268076,2.1971944417356615,58.78423735748194,0.6678246292287304,1000.0,1
11.299812078475952,-183.5203319787979,638.576865196228,2.137034099405894,-232.81936306393874,675.5030278980735,2.133081181113504,61.59493451426702,0.22648553491401213,1000.0,1
11.358135461807251,-189.2431676387787,646.5109586715698,2.0946188606512286,-242.19743398719788,687.8232334287364,2.077089798869502,67.16292407356121,1.004341258917001,1000.0,1
11.441520690917969,-196.44522666931152,659.9987149238586,2.037510239490599,-248.91401585299292,698.9099848087955,2.016588716316202,65.32274307207247,1.1987149788780986,1000.0,1
11.51650094985962,-203.1056433916092,671.4314818382263,1.9847596238122795,-253.51926594746422,709.865478175144,1.9623983600043908,63.39326000159964,1.2812060407706596,1000.0,1
11.599791526794434,-209.04454588890076,684.732973575592,1.9210847042682087,-260.1058724204454,723.5109805824997,1.9101711284001548,64.11702499795823,0.6253018366353099,1000.0,1
11.65816068649292,-212.41623163223267,694.9312686920166,1.8793093308333824,-262.95630922902967,733.9070626251707,1.846791804851637,63.82328694301131,1.8631169989610101,1000.0,1
11.733307123184204,-214.05445039272308,708.5018754005432,1.8253763184366165,-261.6892460830272,747.4411842554669,1.7925174787967375,61.525145546809945,1.8826728310622372,1000.0,1
11.816553831100464,-218.9907282590866,722.7886319160461,1.7616014508191715,-263.8016046007352,763.3137844061898,1.739698614735598,60.41773434063808,1.254940066955615,1000.0,1
11.89984941482544,-220.17864882946014,737.0564341545105,1.6956816282520266,-267.01168419875273,777.0617762550647,1.6791763666208201,61.59351100955187,0.9456818312273434,1000.0,1
11.958153247833252,-221.81019186973572,747.4319934844971,1.6489549803417898,-272.01758932206315,792.8497061347238,1.6203220559418137,67.70193041054691,1.6405457232357863,1000.0,1
12.033162832260132,-222.15646505355835,760.735273361206,1.5904460091582064,-270.1002622282616,807.7385334568331,1.5632170933652803,67.14100198199498,1.5601019556517841,1000.0,1
12.116523027420044,-222.18742966651917,775.3236889839172,1.5235972934642679,-270.3226696422958,821.9167598804686,1.5016783744658027,66.99190684774294,1.2558615501011736,1000.0,1
12.199896812438965,-221.03917598724365,790.3164625167847,1.4573127344216854,-268.4264018361533,835.7389911808712,1.4422368898987317,65.64110970950543,0.8637822637606672,1000.0,1
12.274870872497559,-219.19336915016174,803.7698864936829,1.3996934298871506,-266.9113197292349,846.6313587716543,1.3854301511836604,64.14131752078514,0.8172256717288172,1000.0,1
12.333214521408081,-217.07013249397278,814.2022490501404,1.3551076631090342,-262.88475762177774,855.9854133113433,1.3248622697554937,62.00655361556523,1.732933388870901,1000.0,1
12.416519403457642,-213.57379853725433,828.631579875946,1.2870967729182474,-261.78961454737095,870.3462571634524,1.2666557018254523,63.75640528387884,1.171187102344031,1000.0,1
12.499869108200073,-209.36863124370575,842.8735733032227,1.2216541570840003,-260.2893583247002,880.504505016861,1.2087414959530904,63.31672344723494,0.7398409850837578,1000.0,1
12.574841260910034,-203.76472175121307,856.8403124809265,1.1639121585543888,-257.2933607416398,896.0580816173949,1.1455504526207516,66.35773209060693,1.0520482546577308,1000.0,1
12.633176803588867,-201.81597769260406,862.4374866485596,1.1227365096265989,-252.37885841675174,909.1489543869902,1.0939832130879918,68.83724373769502,1.6474425387503018,1000.0,1
12.716596126556396,-196.59855961799622,873.3299970626831,1.0527351476768192,-247.67749680424566,922.7631918694913,1.0404988492189022,71.08233657445894,0.7010882585010794,1000.0,1
12.791475772857666,-189.5875632762909,886.6002559661865,0.9915444522731359,-240.7972628088422,935.9855463794904,0.974384916245807,71.14309689225337,0.9831689927686288,1000.0,1
12.874823093414307,-176.81002616882324,900.7611870765686,0.9453460602254803,-231.7093703325863,943.7543038654006,0.9142969880779772,69.7305247422494,1.7789807918491216,1000.0,1
12.974822759628296,-167.62623190879822,916.700005531311,0.8765875077087413,-221.36141742400258,953.0406662183908,0.8608905674947981,64.86997596366822,0.8993684255281242,1000.0,1
13.033155679702759,-160.72538495063782,923.986554145813,0.8390453469608286,-210.3242758003479,963.4530617029646,0.7989053003387111,63.3849760769866,2.2998552609056864,1000.0,1
13.133109331130981,-146.99584245681763,936.9208216667175,0.7730186620691472,-199.76965136021818,977.7453704323109,0.7376852412572829,66.7212011888796,2.0244558882795314,1000.0,1
13.23314642906189,-133.58961045742035,949.2120742797852,0.7160636200187813,-184.13690843448495,989.2581679396205,0.6714050283150859,64.48813030468837,2.5587488236197027,1000.0,1
13.349822521209717,-117.60011315345764,963.4208083152771,0.6463968381919398,-170.8379219476514,996.9438197186449,0.6151603727129252,62.91308749979979,1.7897176388536278,1000.0,1
13.458161115646362,-101.22640430927277,975.4070043563843,0.5868194204648295,-158.34139905617175,1006.488628959732,0.5596161548820661,65.0245339308305,1.558632306865834,1000.0,1
13.549866914749146,-86.71189844608307,984.6479892730713,0.5424659241188019,-144.25238259351838,1014.4006053325026,0.5070195555265313,64.77750750299968,2.030927319402181,1000.0,1
13.674803018569946,-65.96991419792175,996.5405464172363,0.48718191468352456,-123.14475519540967,1025.9499657659856,0.4490278747826818,64.29522835730977,2.1860654576920324,1000.0,1
13.79146957397461,-45.30491679906845,1007.050633430481,0.441419115216846,-101.98816201937403,1038.6974035959015,0.3962801307092769,64.91924484009536,2.5862733037901173,1000.0,1
13.97477674484253,-16.234999522566795,1019.7473764419556,0.38378835435631387,-68.78417305780229,1052.3872605487406,0.3415786528507624,61.860954355236515,2.4184377507750963,1000.0,1
14.174787998199463,19.129186868667603,1032.5175523757935,0.3513355872027432,-29.138804822022987,1063.80094055858,0.2898480447646023,57.519122020833024,3.5229766743370146,1000.0,1
14.474817752838135,72.80538976192474,1053.1116724014282,0.32383732490384315,25.203917911673873,1081.2576919500027,0.2544146790966456,55.300077203734205,3.977624607383999,1000.0,1
14.749783992767334,122.1139058470726,1069.4257020950317,0.30883937694083774,75.50897859752807,1095.456669895921,0.25359680117877714,53.38193073115918,3.1651664405977695,1000.0,1
15.049805879592896,176.40045285224915,1086.535096168518,0.24640344001320402,134.20922142855406,1111.3441856210516,0.20071502254777474,48.944774271740236,2.617753493400896,1000.0,1
15.249793291091919,212.82774209976196,1094.7191715240479,0.18341963618038756,173.97462830320904,1120.5075327688892,0.14245542723595495,46.632649800138154,2.347076283608046,1000.0,1
15.408113241195679,241.7672723531723,1099.431872367859,0.1169262756631082,200.90793802964245,1125.4271849100692,0.08745181243960017,48.42769327078444,1.6887623461205703,1000.0,1
15.524775505065918,260.2231502532959,1101.9353866577148,0.0647611301567519,221.68963795467383,1124.71053689918,0.02801181401602529,44.76090971583761,2.1055807148556296,1000.0,1
15.649784564971924,281.47831559181213,1102.023959159851,-0.013138761793088337,243.50072360159223,1127.5577690929456,-0.03133320561448061,45.76322697401279,1.0424648415536546,1000.0,1
15.724774837493896,298.11641573905945,1101.9551753997803,-0.055460367344741184,256.9065266774351,1126.28224789834,-0.08671700326431792,47.854586121097825,1.7908733199687576,1000.0,1
15.82475733757019,316.781222820282,1100.5343198776245,-0.11251487016952469,275.1027493692463,1122.4806217598252,-0.14151785253115395,47.10345332895853,1.661748482613726,1000.0,1
15.924750804901123,334.56772565841675,1098.3208417892456,-0.1798219213717231,293.9168398834905,1118.2427911228563,-0.20854978996759654,45.27006272954622,1.6459856249499671,1000.0,1
16.024744272232056,353.05050015449524,1091.0828113555908,-0.23840852935183357,310.62303189196325,1112.7578789463637,-0.27461218782222335,47.64345304690595,2.0743168332863884,1000.0,1
16.124818563461304,372.2122609615326,1087.0448350906372,-0.3114326640025228,332.9263652391833,1105.9750306643055,-0.3345819882899244,43.60887417905476,1.3263585802478053,1000.0,1
16.208098649978638,385.7834041118622,1081.2435150146484,-0.3729137147179973,346.5476946502033,1101.7281597141837,-0.39189959270810226,44.26128743525096,1.0878106791833377,1000.0,1
16.26642155647278,395.8000838756561,1077.8813362121582,-0.4170347044738041,360.4776406798027,1096.2412688457946,-0.44641813455283336,39.809070821057354,1.683546531146132,1000.0,1
16.34978723526001,409.3268811702728,1070.6737041473389,-0.48254098620249447,372.868166244378,1086.5391471087723,-0.5050574131490497,39.76116414807499,1.2900962337522555,1000.0,1
16.42475962638855,420.1905131340027,1063.39693069458,-0.5370176572237914,382.62560314991083,1079.3172369215645,-0.565081124184456,40.79924769494999,1.607918215350912,1000.0,1
16.508079767227173,432.82032012939453,1055.3635358810425,-0.607524131342463,397.0081827910411,1073.2824477381328,-0.6197303339273673,40.04493204992683,0.6993638919966949,1000.0,1
16.708060264587402,464.2447829246521,1030.4512977600098,-0.788348331600784,423.8606408722311,1048.5974596103777,-0.8026195528085435,44.27371815433921,0.8176807437022114,1000.0,1
16.783045768737793,474.3281304836273,1019.9763774871826,-0.8417582436456822,430.7494903155071,1039.619544486389,-0.8695051738222411,47.80117036915741,1.5897819935610111,1000.0,1
16.84141969680786,481.38538002967834,1011.6134881973267,-0.8905284402468262,441.7961052771886,1028.0824709715112,-0.927270695899397,42.8781770723116,2.105176178683001,1000.0,1
16.924729824066162,490.3280735015869,999.6315836906433,-0.9671129916240983,446.87222321828136,1017.7626590369904,-0.9909170058025385,47.086588505220696,1.363869547894198,1000.0,1
17.008079290390015,498.8754391670227,987.3583912849426,-1.0365852407196925,451.5645561722601,1002.4898339465253,-1.0577215802016169,49.67172441907854,1.2110230466699967,1000.0,1
17.083115100860596,505.5578947067261,975.6665825843811,-1.1017561918040675,456.23853380286164,988.5451744174311,-1.1261586789472844,50.973105531916865,1.3981595229285824,1000.0,1
17.14156436920166,510.24532318115234,965.5455350875854,-1.1536198812480065,464.280504021695,977.8824189569671,-1.1874007897938648,47.59163060841924,1.9355034877950925,1000.0,1
17.22478723526001,516.5483355522156,950.4556655883789,-1.2263279774299827,470.8436474666495,964.535138209966,-1.2520077962886784,47.82415772704113,1.4713452392637247,1000.0,1
17.283106327056885,519.7961330413818,939.9459362030029,-1.2760247556754074,469.54170621224233,956.8868683403606,-1.3040221057359203,53.0330330794675,1.604129996017726,1000.0,1
17.341482400894165,523.0464339256287,929.5763373374939,-1.3260628208451462,473.32555015240405,943.0187491730238,-1.3660665276464175,51.50596780128013,2.2920435645916317,1000.0,1
17.424776077270508,527.7008414268494,915.2054786682129,-1.3983490360657476,475.86748239311964,931.8215622321975,-1.4280225751174065,54.431528930619336,1.7001685508766877,1000.0,1
17.49972128868103,528.4551978111267,901.4503359794617,-1.458152651504949,478.057950011186,920.1950811751502,-1.49905827860955,53.77032693093764,2.343719791429589,1000.0,1
