time_stamp[s],x_true_pose[mm],y_true_pose[mm],theta_true[rad],x_pose[mm],y_pose[mm],theta[rad],p_err[mm],a_err[mm],num_particles,valid_pose
4.883411169052124,47.305136919021606,-0.002808868885040283,0.07896507334437906,120.59104535077438,-1.3805495482684194,0.027732320521102895,73.2988577267537,2.9354205096106774,1000.0,1
5.066814184188843,75.43755322694778,1.5399456024169922,0.13413612102117525,170.45863378091119,8.953059232109874,0.061887490650901704,95.3098106352622,4.139541595817377,1000.0,1
5.22513747215271,101.75309330224991,5.894716829061508,0.17935837227039567,201.3507363306104,12.895118341112237,0.10363239224920714,99.84335790694665,4.3387790547060945,1000.0,1
5.383336782455444,125.56393444538116,10.620884597301483,0.24414218302602186,254.6997191348773,20.210390482229975,0.16624627969838313,129.4913491724022,4.4631065020327645,1000.0,1
5.525073528289795,146.9177007675171,15.446078032255173,0.3052006473131758,288.3586581355473,30.77754721416151,0.23145009468396766,142.26945690646562,4.225595402411083,1000.0,1
5.641727685928345,162.76024281978607,21.596405655145645,0.3699020070629861,315.02040020310716,37.708517424004825,0.29428394372552286,153.1102729148045,4.332595884189588,1000.0,1
5.741797924041748,177.4407923221588,27.19436027109623,0.42417054906478346,350.87021336651713,43.36323005349873,0.3512819509129713,174.18150428165904,4.176209048723888,1000.0,1
5.841874837875366,192.06321239471436,34.114595502614975,0.4828774638274653,371.6258011636008,50.17421408623772,0.41419980697695513,180.27932392383676,3.9349398843819596,1000.0,1
5.941877126693726,206.01508021354675,42.361997067928314,0.5470990756225117,392.92164915499956,58.714179206325774,0.48172494647614944,187.62051959781311,3.7456616894297405,1000.0,1
6.041781425476074,219.93166208267212,51.19561031460762,0.6124256021298559,414.29109338776885,66.95414068102302,0.5445877292562735,194.99723027917565,3.886823806801282,1000.0,1
6.1250786781311035,230.6530624628067,59.484679251909256,0.6718273382403372,422.51415853575014,76.39840463773253,0.600348361096383,192.60517722205256,4.095443714260653,1000.0,1
6.20009446144104,239.95867371559143,67.47247278690338,0.7266135725619054,440.2448270723095,86.33655376961794,0.6549036599182048,201.172554732879,4.108675343735866,1000.0,1
6.258378028869629,246.70074880123138,73.15664738416672,0.7698723858748315,453.2156394502248,96.38905828197993,0.7090904150707831,207.81757619578408,3.4825503975593675,1000.0,1
6.341749668121338,256.16559386253357,82.4846625328064,0.83436558678286,454.8450299914956,107.81500541668011,0.7689602823094778,200.2876546648268,3.7474479040929247,1000.0,1
6.416767120361328,264.3285393714905,90.79191833734512,0.8952929408071849,470.0557793045233,114.2213633232672,0.829489451783636,207.0570842613505,3.7702621982847924,1000.0,1
6.500126361846924,271.67582511901855,102.05265134572983,0.958036756241281,486.23305016312025,117.31336444177077,0.8920562405098967,215.09926123263412,3.780405081504855,1000.0,1
6.558422803878784,276.52859687805176,109.71033573150635,1.0046231032411927,496.0150981947914,130.74158350668085,0.9573470353992025,220.49180856268546,2.708719159320194,1000.0,1
6.6417553424835205,283.8514447212219,122.03362584114075,1.0713369870050675,501.47224758218977,142.62323709401304,1.0111567027679715,218.59264838826724,3.448076296683275,1000.0,1
6.71671986579895,288.81242871284485,133.30145180225372,1.1335000331854213,501.5826545404872,153.74370680214287,1.0680849329608946,213.7499819607628,3.7480091592906626,1000.0,1
6.800110816955566,294.3192720413208,145.39100229740143,1.201560571307182,506.4460206695044,165.53661322425032,1.1396694976632158,213.08121250636003,3.5460973093326267,1000.0,1
6.883405923843384,298.61360788345337,157.78149664402008,1.2720189929009995,503.7514675962781,180.4739581606965,1.1976500506913415,206.38916952506105,4.26102651546573,1000.0,1
6.941814422607422,301.35875940322876,166.33154451847076,1.322277785248726,499.6136872144774,190.97966640687065,1.2572574571333563,199.7812461520571,3.725390383566485,1000.0,1
7.016736030578613,303.7301301956177,178.22813987731934,1.3859226471149009,498.30510811015483,199.09824210213975,1.3241451520838592,195.69104015594857,3.5395897341691027,1000.0,1
7.100127935409546,306.30767345428467,191.4156675338745,1.4577520344942694,499.0687209470192,211.8773876856817,1.3840703474258258,193.8440182777563,4.221649696425473,1000.0,1
7.175066947937012,307.17429518699646,204.1817456483841,1.5217161914396442,489.66944048047867,226.70086846402546,1.4530606091495795,183.8792781910869,3.9336751052338292,1000.0,1
7.24176287651062,307.78008699417114,215.69208800792694,1.5790874101567773,480.8339968759471,242.1234365251867,1.52708039300645,175.06076633503773,2.9797825877782436,1000.0,1
7.316728830337524,307.220458984375,229.16783392429352,1.6401286727789177,465.7480589115621,257.2141554298782,1.592611238624021,160.98942849972764,2.7225484303663703,1000.0,1
7.4001007080078125,305.7536482810974,243.6618208885193,1.710766520326337,467.356040397249,269.34184387531775,1.6532399982312056,163.63006055815327,3.2960269261171025,1000.0,1
7.475106954574585,305.5290877819061,248.69045615196228,1.7658687703135998,457.1338915279401,282.2210309914323,1.7173278113928796,155.26852858174053,2.7811920796751703,1000.0,1
7.541781187057495,302.9961884021759,256.481796503067,1.8280262222881636,440.6426352117366,291.45810662022575,1.7679359464760758,142.02072591248393,3.4429191938096873,1000.0,1
7.616775989532471,299.68684911727905,269.2584991455078,1.8913947566238751,417.62422569279175,303.7091597016252,1.8350031862030607,122.86607671064911,3.2309989852274392,1000.0,1
7.700084209442139,293.95395517349243,286.75973415374756,1.9563803456704367,396.957325983618,316.2018560321905,1.9003927571362365,107.12858133548353,3.2078525281247146,1000.0,1
7.775089740753174,288.8733148574829,298.25931787490845,2.0083951410699625,377.1601023358897,330.0617926587871,1.9505674792726095,93.84004606582737,3.313280960098231,1000.0,1
7.87504768371582,283.4739089012146,311.2845718860626,2.085474767494869,351.3678527961409,343.90084146909186,2.0245955104053364,75.32203302567075,3.4881244911221185,1000.0,1
7.9584269523620605,274.885892868042,324.2260217666626,2.1525342528692653,330.52008009389783,352.45930644115015,2.074932923629566,62.38814912939984,4.446228650039908,1000.0,1
8.016756057739258,269.3638205528259,333.5557281970978,2.1903790723452414,312.00447999724645,365.9036405140337,2.1321272979428336,53.52208207010659,3.3375808224061707,1000.0,1
8.633440971374512,197.95861840248108,404.5649766921997,2.5556381849941325,168.25280019768448,446.13420619800615,2.4898819127437046,51.09243072043876,3.7675568764627307,1000.0,1
8.758386850357056,179.9946129322052,416.4869487285614,2.6097969698783823,147.40231269002885,456.6108130472318,2.5485754968875174,51.69315740926683,3.5077320179507194,1000.0,1
8.875138759613037,161.87290847301483,426.9115626811981,2.654053628610908,123.89040797312742,467.3049192391897,2.597521041273005,55.44631275607954,3.23907865941656,1000.0,1
9.033418416976929,134.7838044166565,440.981388092041,2.701485347483319,94.5844559477431,479.0286565653759,2.652954776008673,55.34963645415527,2.7805969228551874,1000.0,1
9.191746234893799,109.51351374387741,452.01271772384644,2.738714962900849,66.98233476198804,495.12281194346707,2.6869091930093614,60.55890858671477,2.968251969208162,1000.0,1
9.375087976455688,79.30602878332138,461.645632982254,2.767003881221532,34.738906495879064,509.16546003012365,2.722895051580149,65.14877091429491,2.527249777712801,1000.0,1
9.550127506256104,50.546593964099884,474.38299655914307,2.777345620251665,-0.19276892656973374,520.8619257347943,2.7376587203273854,68.80969265929232,2.27389186761929,1000.0,1
9.733436822891235,20.36372572183609,486.5049719810486,2.7782037215723276,-36.1943138569478,536.4514247154764,2.7315521540360765,75.45501959278597,2.6729379274967124,1000.0,1
9.875151634216309,-0.8590137585997581,498.1570243835449,2.7673646656390165,-62.45298709833127,544.6279851093026,2.7248463681744934,77.15806984723288,2.436118996798961,1000.0,1
10.050108909606934,-29.787391424179077,509.2948079109192,2.7431380625009028,-93.6355355600274,561.4915639126813,2.7035276168426323,82.46870222514447,2.2695113608511917,1000.0,1
10.233404874801636,-59.3939870595932,522.5690007209778,2.701781643306061,-121.80697819949935,573.6605574974521,2.674693469543362,80.65809715629118,1.5520380313196576,1000.0,1
10.408419847488403,-85.93332022428513,536.9100570678711,2.648542869598678,-150.38559691673007,585.6603496573972,2.620825958935362,80.81266607657419,1.5880620021491378,1000.0,1
10.550066709518433,-107.01632499694824,549.5638251304626,2.592031238343483,-171.9049304604182,598.9103064103434,2.568534030766057,81.520588403786,1.3462908245293408,1000.0,1
10.666728258132935,-124.42021071910858,560.9906911849976,2.53964073270757,-197.89309515544394,613.8880637768749,2.521299971852908,90.53395371085362,1.050848190030896,1000.0,1
10.80837631225586,-145.52178978919983,573.6017823219299,2.4519619597863525,-215.4312778799823,629.6493083989749,2.450229110710832,89.60279964639659,0.09928493856047833,1000.0,1
10.908456802368164,-159.80616211891174,584.9862098693848,2.4021955091197107,-229.97681821678424,640.6962259780582,2.390475787053855,89.59646685017523,0.6714906114398801,1000.0,1
11.02523946762085,-169.55463588237762,591.0792946815491,2.335966236400435,-243.79856424120217,656.136676994415,2.326339240770084,98.71486155363168,0.5515862190100214,1000.0,1
11.125281810760498,-186.23679876327515,607.1392893791199,2.2618052828682402,-256.8918187271071,667.5633279684293,2.2563098369569636,92.96879199780886,0.3148658572585737,1000.0,1
11.208525657653809,-195.5050826072693,618.4743642807007,2.2177550204008614,-267.3486221620402,678.1843572266952,2.202694267270337,93.41722235952344,0.8629175906674812,1000.0,1
11.30850625038147,-205.08694648742676,631.811797618866,2.1469119343881986,-278.21321257432095,694.6482608852364,2.1463538169568848,96.41510207243037,0.0319777732869658,1000.0,1
11.366818904876709,-210.8301818370819,640.4200792312622,2.101805868142983,-287.38631692298605,703.8022411445638,2.0954096296552076,99.38883371936299,0.36647747010866893,1000.0,1
11.450177669525146,-218.1975692510605,652.810275554657,2.043231332925451,-290.21125201587597,711.7895866475699,2.035609126454874,93.08345525573317,0.4367202613413494,1000.0,1
11.52522325515747,-224.4318127632141,664.3500328063965,1.9893263262414715,-294.66467509909853,721.3221493725906,1.9862632326252303,90.43493250908801,0.17550233646408817,1000.0,1
11.608536005020142,-230.6586652994156,677.0101189613342,1.9260784052664461,-297.5300885052857,732.5422061904092,1.9284452532992928,86.92295412373056,0.13561040303095728,1000.0,1
11.691790580749512,-235.14313995838165,690.6193494796753,1.861166305515597,-303.4872479736479,743.9920289065386,1.873100177114307,86.71539661216515,0.6837604758571272,1000.0,1
11.750123977661133,-235.71956157684326,701.9122242927551,1.8206350754835638,-307.3801174215036,757.40873334905,1.8096138500630679,90.63717659658809,0.6314697016567166,1000.0,1
11.825210809707642,-240.08673429489136,715.9008383750916,1.7605201397923123,-304.82590639586243,770.3584528089597,1.7563245634796112,84.59782606040768,0.2403888153428312,1000.0,1
11.908498287200928,-241.3356453180313,730.8789491653442,1.698494157195032,-304.81090927379927,781.1366846468478,1.6970863963535971,80.96264021129251,0.08065875477800538,1000.0,1
11.983447551727295,-243.27029287815094,742.2230243682861,1.6468576176248118,-302.1935973765074,793.4620231206212,1.6375884066325646,78.08579132049461,0.5310866692720346,1000.0,1
12.083465099334717,-242.8993582725525,757.9628825187683,1.5638655030578823,-301.37702592694706,807.081606089828,1.5701045385413543,76.36940892496159,0.3574704014353112,1000.0,1
12.150110721588135,-243.20150911808014,769.9179649353027,1.5079217080114435,-302.72156176640834,820.2781663799351,1.498218022488471,77.966573329881,0.5559802261885286,1000.0,1
12.225148916244507,-241.6689097881317,782.8744649887085,1.4521232801284847,-298.9835718738207,832.6707730077834,1.4378343686412505,75.92524469718423,0.8186943220545206,1000.0,1
12.308481931686401,-239.69431221485138,797.7538108825684,1.3887581558935698,-294.6667669891555,845.08636710923,1.3853541442513326,72.54199930290726,0.19503550051358426,1000.0,1
12.383447170257568,-237.20033466815948,811.0180497169495,1.3285731983984486,-292.36949650228087,857.931984855706,1.3159797682613603,72.41929112938713,0.7215503964480142,1000.0,1
12.44180941581726,-234.85562205314636,821.0412263870239,1.2814175098865979,-289.72976699827416,870.4654433973448,1.2623362759427275,73.85069404238651,1.0932741728855409,1000.0,1
12.525158166885376,-229.74948585033417,835.7457518577576,1.220403327288606,-287.5308502775929,885.7556734043817,1.2076042286535058,76.417788035085,0.7333343333628877,1000.0,1
12.608499526977539,-224.06554222106934,850.1158952713013,1.1577106963734978,-281.34815653057143,897.2122971287006,1.1434188400896936,74.15773034582989,0.818863046469502,1000.0,1
12.683479070663452,-218.0643379688263,862.2357845306396,1.1009482633083971,-274.7196055098793,911.2092430538645,1.0891728204024458,74.88804296998498,0.6746831804082773,1000.0,1
12.766825675964355,-213.4600579738617,872.4733591079712,1.0378757200344557,-264.41414290461694,921.1437364625026,1.032660476401083,70.46363887114475,0.2988114493247331,1000.0,1
12.825127124786377,-207.87976682186127,881.8563222885132,0.9895790226475087,-255.86148495116717,933.6049908615687,0.9683100556107199,70.57031935398979,1.2186220458108683,1000.0,1
12.90839433670044,-198.220357298851,894.6475982666016,0.9372383244136218,-249.17768381414152,941.3698841071391,0.9122315497045008,69.1348039684125,1.4327826500671166,1000.0,1
13.000118017196655,-187.1308982372284,907.9431295394897,0.8788192684395566,-236.8132257971509,956.5691273569087,0.8513642219029306,69.5184963553662,1.573058292883938,1000.0,1
13.083421468734741,-177.9589056968689,920.0398921966553,0.8254319425490576,-227.5113602582911,962.7074676798109,0.8037590041671526,65.39088430869084,1.2417678989302472,1000.0,1
13.183420419692993,-166.0616546869278,934.1296553611755,0.7595673971784813,-217.7993586503988,976.782153769208,0.7393832192994583,67.05240959025241,1.156468205409338,1000.0,1
13.266860723495483,-153.3331423997879,943.2725310325623,0.7116161211503019,-207.59888168287372,985.4148556963293,0.685626534150248,68.7076850723861,1.4890936463911613,1000.0,1
13.366827726364136,-139.5266056060791,955.9577703475952,0.657399258995201,-192.52728087218145,1001.3859575809824,0.6331767179366503,69.80538499266744,1.387849371737305,1000.0,1
13.46685528755188,-124.51916933059692,967.2284126281738,0.6045718518536354,-176.05015852950663,1014.356736229298,0.588102534629908,69.83209672686641,0.9436223683816916,1000.0,1
13.566788673400879,-108.7479293346405,976.9971370697021,0.5580740292714025,-158.10085286169937,1026.1806715933826,0.5355049424918771,69.67590063221134,1.2931134199313088,1000.0,1
13.683492183685303,-89.77344632148743,988.6229038238525,0.5074945336777983,-140.0130474820976,1038.3761058563434,0.4791329257125751,70.70642571409644,1.6250004366119073,1000.0,1
13.800176620483398,-70.02752274274826,999.1248846054077,0.46557691400215706,-119.17310372764489,1050.7773866688353,0.42594533756951064,71.29704832428497,2.270722065040779,1000.0,1
13.966908931732178,-41.565824300050735,1012.7179622650146,0.4116300260094764,-92.20772369734026,1063.8286235792673,0.372835577237367,71.95068918742498,2.2227581831783483,1000.0,1
14.10023546218872,-20.047388970851898,1021.8814611434937,0.37994411820374613,-66.12834257018564,1074.0349580864,0.3358885119570957,69.59483837180515,2.524200301823256,1000.0,1
14.258541584014893,7.937368005514145,1033.3237648010254,0.3599346221054115,-39.00058601192322,1082.9154657159736,0.3054093240011331,68.28256239319624,3.1240694580678223,1000.0,1
14.400228500366211,32.648902386426926,1043.005347251892,0.3478662885150141,-12.426728232203395,1090.0059697003444,0.29424609885022923,65.12197007315704,3.0722105644831696,1000.0,1
14.558634996414185,61.506710946559906,1053.2472133636475,0.34778409709838504,14.34284154072062,1098.3329069440929,0.28941379209798185,65.2468416320735,3.3443721254144676,1000.0,1
14.716826677322388,90.1317447423935,1063.8279914855957,0.33991909540825155,39.504851161784444,1106.3038848393217,0.2862719640454895,66.08542857407686,3.0737542100701782,1000.0,1
14.858481407165527,114.936962723732,1071.7017650604248,0.3159555753563991,67.45551186085015,1111.2018599620524,0.25964260297660974,61.76362742975713,3.226495649198707,1000.0,1
15.016813278198242,143.67473125457764,1081.4619064331055,0.2822513303738328,92.01966980289889,1117.4123644234617,0.23026952972687273,62.93393999499057,2.9783377885612254,1000.0,1
15.158523082733154,168.91607642173767,1089.1034603118896,0.23688924553961566,118.67863218595748,1126.5577450015105,0.19307807807381697,62.662781975861016,2.5101949913311272,1000.0,1
15.31688904762268,197.3995566368103,1095.5383777618408,0.17698035526034867,142.80064254260458,1130.3906551651069,0.14013492231770808,64.77439818678879,2.111087801945595,1000.0,1
15.458526611328125,224.11678731441498,1099.4582176208496,0.11266590097378845,172.77647741846923,1134.6482485719482,0.08283829922108404,62.24279635870341,1.7089956934269797,1000.0,1
15.5585196018219,242.81856417655945,1100.7946729660034,0.06224426032211457,189.74755540284727,1136.2951191350298,0.03137266716086525,63.84993070050568,1.768811994984521,1000.0,1
15.658511400222778,259.45666432380676,1101.9291877746582,0.011264645393924565,209.97362032517844,1134.6861782005649,-0.02041427818188992,59.34300350616851,1.8150686204116526,1000.0,1
15.758533716201782,273.1218934059143,1101.2003421783447,-0.05291039848261321,231.92882631363858,1133.834274999385,-0.07099038860681875,52.55323346699888,1.0359071277551863,1000.0,1
15.8585786819458,295.2738404273987,1099.7861623764038,-0.12132719932424933,248.4575748557917,1135.786257530227,-0.1357286657842439,59.05734139931762,0.8251432469568984,1000.0,1
15.958557605743408,314.11901116371155,1097.4297523498535,-0.17897090586459685,267.28158509143384,1134.04366969865,-0.19471540823538108,59.45017598544673,0.9020935363796552,1000.0,1
16.058627367019653,331.5543532371521,1094.2004919052124,-0.2541528313432001,288.55254132762883,1131.075685223699,-0.26258452834060475,56.64746869700167,0.48310065208441483,1000.0,1
16.13360071182251,345.1445996761322,1087.7712965011597,-0.3033430280369411,303.7996764522508,1126.8637294881892,-0.312629162979051,56.900096601271585,0.532056340171861,1000.0,1
16.216862201690674,360.45145988464355,1083.2334756851196,-0.36755917318982173,319.072852934597,1119.4464956144936,-0.3679739435396056,54.987015972242766,0.023764590509781067,1000.0,1
16.30025053024292,374.20201301574707,1076.7799615859985,-0.4293048215233805,335.2087337554592,1113.4216380227758,-0.42710908708515233,53.507833814949706,0.1258063162420035,1000.0,1
16.358543395996094,384.5527470111847,1071.8214511871338,-0.4772626305387102,347.7365791547377,1108.6587226683428,-0.47431545893462757,52.080848551212895,0.1688604944147363,1000.0,1
16.433549880981445,396.3746428489685,1064.7468566894531,-0.5350337894125317,362.3158447389512,1101.2851787144364,-0.5373108237388171,49.950482531205765,0.13046445670257134,1000.0,1
16.51687788963318,409.2941880226135,1056.1760663986206,-0.6048830654367736,375.4318767557067,1092.5620895100396,-0.592399887684234,49.70511847085374,0.7152334001321233,1000.0,1
16.600265502929688,421.47666215896606,1047.989010810852,-0.6800813231076204,383.20575700402617,1084.3456783946745,-0.6523300798181031,52.787019798232286,1.5900291167300875,1000.0,1
16.633559703826904,426.4591932296753,1044.1784858703613,-0.7090067633696862,391.31106828411725,1082.3092896197652,-0.7005685778694846,51.85893251662736,0.48347241591003853,1000.0,1
