time_stamp[s],x_true_pose[mm],y_true_pose[mm],theta_true[rad],x_pose[mm],y_pose[mm],theta[rad],p_err[mm],a_err[mm],num_particles,valid_pose
0.18327665328979492,-1.645155600272119,-1.8584690988063812,0.021944888521936254,-4944.871477747095,20.16866609472003,-0.0008077846889662703,4943.275398624887,1.3036321476250858,1000.0,1
5.066662788391113,27.532199397683144,-1.9260086119174957,0.032328608126996096,-4858.611081522656,30.734267201689658,0.0022238347552482342,4886.252434668025,1.7248764573989774,1000.0,1
5.241647958755493,52.70181968808174,-1.2864060699939728,0.05144946907228226,-4761.821655950731,79.95475214375575,0.016807402312213247,4815.2088660062445,1.9848442189623923,1000.0,1
5.424950122833252,82.3320597410202,-0.11082738637924194,0.10301290986609074,-4664.032572754352,120.01051485148434,0.054382085303926804,4747.884409025135,2.786341001653133,1000.0,1
5.583354949951172,106.74326866865158,2.688363194465637,0.15247111313968875,-4539.3592982672135,158.90745370321713,0.08973013546141466,4648.7281558214845,3.5947932234896123,1000.0,1
5.741731882095337,130.70957362651825,6.1399489641189575,0.2144313754732444,-4430.647987165443,161.34349021606403,0.14482017324214902,4563.997254229141,3.988428094673425,1000.0,1
5.866699457168579,149.5908498764038,10.80128364264965,0.2727156662052287,-4355.360417219233,189.38438794445966,0.19376865546931898,4508.489530213933,4.523330520341625,1000.0,1
6.0000691413879395,169.35493052005768,16.15036278963089,0.3363193013984321,-4289.5190922882175,239.8230435279995,0.258662491748626,4464.480599060001,4.449407443384692,1000.0,1
6.125034332275391,187.70892918109894,23.29055592417717,0.4113187493341987,-4258.134556211387,269.2954097765746,0.33127590795729195,4452.644459725674,4.586116991131872,1000.0,1
6.225042104721069,201.79778337478638,30.00514954328537,0.4707329347045518,-4234.523779682371,282.7757428333039,0.38636847692949444,4443.5168485871745,4.833727371420431,1000.0,1
6.325010299682617,215.74488282203674,37.449028342962265,0.5357165886536712,-4205.563402426335,283.1342537955886,0.45762812686026,4428.129196761496,4.474139289431043,1000.0,1
6.425053358078003,229.37850654125214,46.5252585709095,0.6022765731961871,-4162.970590756607,270.5110888291674,0.5216444171678417,4398.056416724301,4.619882233464529,1000.0,1
6.500077247619629,239.31574821472168,54.00223284959793,0.654201371183482,-4138.311826321406,260.7441990880357,0.5770119203046931,4382.506750929563,4.422629758286988,1000.0,1
6.600067615509033,251.94457173347473,64.26671147346497,0.7274084719332886,-4107.060320115229,284.89356006988294,0.6540361818700472,4364.584728640574,4.203922553833402,1000.0,1
6.666714429855347,259.75656509399414,71.0642859339714,0.7791204097727203,-4078.287652166633,287.05279749154164,0.7029983963809652,4343.41785556412,4.361470095385904,1000.0,1
6.7417356967926025,268.11859011650085,79.308420419693,0.8374028934164355,-4068.4507822757014,307.1475441955525,0.7675148832282332,4342.550470390995,4.004288022351286,1000.0,1
6.825077295303345,276.01566910743713,89.42566066980362,0.9005733285802405,-4049.8607781434507,320.541699450956,0.8255032248539602,4332.045897755685,4.301200111125176,1000.0,1
6.9000256061553955,282.7582061290741,99.649079144001,0.9601741677615094,-4026.5478617068775,344.21985639237255,0.8786330729672925,4316.24068506051,4.6719605885847955,1000.0,1
6.983368396759033,291.0688817501068,109.94817316532135,1.0299023793730855,-4013.7935533310483,352.2347185312686,0.9442187156087478,4311.675237658585,4.909312306914573,1000.0,1
7.041763544082642,294.94163393974304,119.86276507377625,1.0759132449575057,-3992.2217856588704,359.9996736513116,1.001962142906226,4293.883547699641,4.237086037879575,1000.0,1
7.116699934005737,300.9163737297058,130.367711186409,1.1394686556905687,-3983.6534049987963,374.4762458039025,1.0556720664041297,4291.51804906687,4.801190903704123,1000.0,1
7.2000627517700195,306.1799108982086,142.71263778209686,1.2071262309087143,-3929.7854903766975,372.9349811611347,1.1306452764510158,4242.217015687554,4.382035903558386,1000.0,1
7.283389568328857,310.505747795105,155.31779825687408,1.2774331084730874,-3901.3075743989093,368.4931505113536,1.1884709467508845,4217.204665630991,5.097156403042511,1000.0,1
7.341711044311523,312.97847628593445,164.28455710411072,1.3274959150701808,-3862.3898662498873,343.54194808212014,1.2481322284443543,4179.214520465607,4.547204290258715,1000.0,1
7.416734457015991,315.4390752315521,175.30998587608337,1.3909779381839047,-3822.226785013986,316.0276154083852,1.3055175414207045,4140.0579974563925,4.896520050044851,1000.0,1
7.500092506408691,317.6800012588501,188.6686235666275,1.4626531036969812,-3802.3139092972233,316.1269634443497,1.3637794622292136,4121.964998811066,5.665042361192764,1000.0,1
7.583432912826538,318.7465965747833,202.6696652173996,1.53363336090146,-3782.773243071617,319.22606011782705,1.4145214518591553,4103.17564676498,6.8246096778702094,1000.0,1
7.641754150390625,319.1823363304138,212.5522643327713,1.5818384262471445,-3739.1795276340717,309.8625709751263,1.4703634095119513,4059.52833647705,6.387047980076793,1000.0,1
7.716728448867798,318.5373544692993,225.65987706184387,1.6441020910234374,-3686.150852249407,287.75035175083156,1.5169534377484326,4005.1695170215944,7.285081203430027,1000.0,1
7.800076961517334,317.315936088562,240.54290354251862,1.7161181875606148,-3672.5386547339963,285.9099558966277,1.5692862342614684,3990.11250785578,8.412851221703095,1000.0,1
7.875107526779175,316.38118624687195,248.24298918247223,1.771952936303739,-3639.6348794237024,281.1540549074188,1.6354578655227525,3956.152960906699,7.8205914800899645,1000.0,1
7.958435297012329,313.4932518005371,257.7824890613556,1.8475062157621365,-3569.8877692614674,238.8790550208011,1.67848788492902,3883.427029643161,9.684037017083451,1000.0,1
8.016785860061646,310.9646141529083,267.8494453430176,1.8966014400936635,-3541.2194296096236,226.3042540840246,1.7344638455278907,3852.4080663833365,9.289799869022053,1000.0,1
8.075100183486938,306.7927360534668,279.9515128135681,1.942363142727682,-3492.1777625448995,195.48269449679245,1.7800820526752372,3799.9094503012243,9.29802155478753,1000.0,1
8.158415794372559,301.49388313293457,292.73366928100586,1.9985304547145828,-3427.108275274568,150.56592951135588,1.827779878753626,3731.311528392168,9.783287351990799,1000.0,1
8.25843095779419,296.50813341140747,306.8787455558777,2.074975342504728,-3432.4240348218595,164.85034657125956,1.8818785223739227,3731.635992618116,11.063632830891931,1000.0,1
8.31674575805664,290.2079224586487,315.2161240577698,2.118741247043799,-3400.6419381844444,153.44908887424089,1.9396979603072826,3694.393220473588,10.25842468015303,1000.0,1
8.400092363357544,281.9769084453583,327.90201902389526,2.178542515193845,-3355.0796689636322,133.0861908450409,1.9903795273798635,3642.2704120071885,10.78094506231269,1000.0,1
8.475151777267456,274.8488187789917,338.57372403144836,2.2251326132159757,-3329.930376545448,122.35604015359839,2.0431595266289926,3611.257832648538,10.42628984640282,1000.0,1
8.575129985809326,267.0291066169739,351.3827323913574,2.289972312245642,-3318.626858394328,123.53485526335646,2.1032925360035755,3592.887885049138,10.695963299116983,1000.0,1
8.675145864486694,256.2054693698883,362.8780245780945,2.355114384529189,-3339.4199062294942,148.49364738245706,2.164879703147441,3602.010897101751,10.899644360190083,1000.0,1
8.75844430923462,246.05438113212585,373.42697381973267,2.403230876325829,-3331.4575702047523,151.42173776016347,2.2114359388481746,3584.393684683096,10.989040449445097,1000.0,1
8.858428478240967,233.02686214447021,384.67150926589966,2.4558478074214207,-3163.1699818629236,54.933372074262124,2.2617530169611317,3412.1665027317167,11.120812318850632,1000.0,1
8.95841646194458,220.1768308877945,395.063579082489,2.5057218028724173,-3172.760259484733,68.89588563872543,2.3124717681312386,3408.5785106803714,11.072411381426075,1000.0,1
9.075100898742676,204.19447124004364,406.7288637161255,2.556071806621237,-3184.079016015994,86.5514377037853,2.3674055681255446,3403.367568830919,10.809779202411804,1000.0,1
9.20004391670227,185.8571171760559,418.05100440979004,2.6048794996188547,-3196.360459423706,100.14592165293851,2.4208707839044212,3397.125163590975,10.542922804059625,1000.0,1
9.358396053314209,161.51276230812073,431.89918994903564,2.653396168267666,-3213.6369113583537,115.51705437973278,2.4720681925356303,3389.9458661397975,10.389327717096256,1000.0,1
9.516714811325073,134.54392552375793,445.90142369270325,2.6904578907616523,-3234.2718758529136,133.02545222636587,2.524564621054146,3383.3136533768416,9.504984203865572,1000.0,1
9.691747188568115,106.65760934352875,458.66018533706665,2.72678146972913,-3260.210288722265,149.9337566084483,2.554430639773908,3380.9926723998537,9.87497515201115,1000.0,1
9.87508487701416,77.17350125312805,472.1267521381378,2.7395166531093276,-3286.2579704994555,168.08666412778055,2.5704204970451334,3377.1454869894333,9.688496074363826,1000.0,1
10.058542966842651,46.64231464266777,485.20106077194214,2.7400622110453883,-3309.9297856711164,184.33011358965095,2.571480273310572,3370.0296128466375,9.659033534342196,1000.0,1
10.23347783088684,17.99502968788147,497.4699020385742,2.730516658228813,-3335.5471448914545,198.87166266942884,2.5640658805951895,3366.809472666467,9.536927055077186,1000.0,1
10.391845941543579,-4.745372571051121,510.6046795845032,2.714517163737395,-3370.6684679186,225.54318584815482,2.548034508367324,3377.9725189831283,9.538753514836054,1000.0,1
10.575133323669434,-34.304507076740265,523.7557291984558,2.670333886031284,-3396.309638694474,246.5626223817652,2.506687163045081,3373.412889566094,9.376266558255965,1000.0,1
10.7501060962677,-60.84548309445381,538.7032628059387,2.6139298257835457,-3415.0851983341963,260.53474156293214,2.4550657080545775,3365.754268139923,9.102243461939317,1000.0,1
10.90846562385559,-84.63688939809799,554.1373491287231,2.5491852926125493,-3429.0547904812574,275.56661120506266,2.4002712308762018,3355.999516256344,8.5321472476433,1000.0,1
11.03347373008728,-102.6659831404686,567.1385526657104,2.4899726879672914,-3440.8175144880142,287.9000366770687,2.34428718510922,3349.810411806839,8.347164450008588,1000.0,1
11.150194883346558,-119.66073513031006,578.9971351623535,2.4193222248853523,-3457.85157731599,304.52948452672996,2.2780157848258074,3349.455267666338,8.096262633430271,1000.0,1
11.250149726867676,-130.48581779003143,585.7462882995605,2.37897531574769,-3465.692098639364,315.1242635507348,2.2139531150890903,3346.167541545998,9.455075623698745,1000.0,1
11.366812467575073,-142.89113879203796,598.969042301178,2.2933384397966265,-3472.5918201993904,329.55366170074313,2.152561462315177,3340.582475417822,8.065926662295277,1000.0,1
11.450194835662842,-153.45753729343414,610.1877689361572,2.2464631015432612,-3482.4066756579386,344.091930219025,2.082790844650986,3339.5672416048687,9.37772954330836,1000.0,1
11.550185680389404,-165.8710241317749,620.1765537261963,2.177223706236407,-3485.32910822332,359.5221948335095,2.0239181029058337,3329.6760603473826,8.783764046548576,1000.0,1
11.633458375930786,-172.0103621482849,632.6413750648499,2.1188782220776874,-3483.7765829870923,369.12815093556793,1.9616810295943914,3322.2333934839626,9.006735680598489,1000.0,1
11.708463907241821,-180.09474873542786,643.5684561729431,2.0665512415853122,-3484.9633216970924,380.04898223321266,1.9070726138893668,3315.3580195350155,9.137452289515833,1000.0,1
11.766772270202637,-184.63194370269775,652.7554988861084,2.0283454545167814,-3486.0999264923703,389.1265444088182,1.8536092415337695,3311.9769122118137,10.011647532025643,1000.0,1
11.850151538848877,-191.46500527858734,665.7971143722534,1.964432763343171,-3486.285120978805,397.84220216536045,1.7980681967083003,3305.6980245930813,9.531987528701046,1000.0,1
11.92511796951294,-196.68953120708466,678.0495643615723,1.9081739014150294,-3485.245803176152,410.8098010790105,1.7364281520682525,3299.3968304807486,9.840306586882031,1000.0,1
12.008492946624756,-200.93843340873718,693.3407187461853,1.8472072738453122,-3482.6249118476817,421.763796845076,1.6807836853716247,3292.9045183968337,9.535369230964351,1000.0,1
12.06679654121399,-201.95765793323517,702.8723359107971,1.8040861426239942,-3480.014782029498,430.71398519881143,1.617446316776869,3289.3355980654405,10.693674310096977,1000.0,1
12.150190591812134,-206.24376833438873,717.883288860321,1.7362635199055663,-3478.4198641504654,444.3069691099851,1.561534088715671,3283.5926063929246,10.011258963902527,1000.0,1
12.225144863128662,-207.28552341461182,730.6880354881287,1.6793263565486702,-3474.958431160431,458.0510511040377,1.4993954199410744,3279.0268613218263,10.309283271451203,1000.0,1
12.308504104614258,-209.3014121055603,745.1200485229492,1.6152709661239122,-3471.1092774465587,470.7834292541874,1.4363468315407006,3273.3241714001097,10.251597764648757,1000.0,1
12.391862154006958,-209.68402922153473,759.3337893486023,1.548838511647044,-3465.9144170281734,483.4425389322235,1.3793623266590382,3267.8972322476247,9.71027012779113,1000.0,1
12.450198650360107,-209.02889966964722,770.4039216041565,1.5007196789301729,-3461.2936564583338,495.0637155010488,1.3235500335320411,3263.899244361976,10.151072939142336,1000.0,1
12.525185108184814,-207.96765387058258,783.7368249893188,1.4404060445870674,-3454.6790474308923,512.1254523618989,1.2536145844865492,3258.0527329702445,10.70236231284601,1000.0,1
12.608520746231079,-205.60504496097565,798.4846234321594,1.375444530149709,-3446.0944689644084,523.9605197943614,1.1966006697286873,3252.0970450704936,10.246998393951325,1000.0,1
12.691911220550537,-201.94286108016968,813.581645488739,1.3107915333359264,-3438.7345370576545,538.8035061881948,1.1393704871045394,3248.4339887882293,9.82170246877544,1000.0,1
12.750216007232666,-198.9174485206604,824.076771736145,1.2652574243014925,-3431.6663447209603,551.8723085184415,1.0791686729974976,3244.1887577143066,10.662100064578498,1000.0,1
12.825179815292358,-194.56955790519714,836.6026878356934,1.2064769172128404,-3420.318437944027,564.799053431628,1.020419970929198,3237.1797992615466,10.660277771144983,1000.0,1
12.908565521240234,-188.93592059612274,850.7533669471741,1.1439354176669851,-3410.9877024633533,579.4390712885321,0.9604875948485849,3233.454674502573,10.51078600835805,1000.0,1
12.983542442321777,-182.80822038650513,862.1554374694824,1.08738205685685,-3400.766348632522,593.9187902588233,0.9039264933769067,3229.1183648252077,10.511229515595108,1000.0,1
13.05022668838501,-180.33471703529358,869.8884844779968,1.0371433282560991,-3387.5783478580324,611.3740363325144,0.8461957835355252,3217.645323424101,10.940488420874432,1000.0,1
13.125210762023926,-172.9186773300171,882.5029134750366,0.9761349795676982,-3375.117009402375,621.3669317429884,0.7915527738446831,3212.8283737047254,10.575781361144275,1000.0,1
13.20856237411499,-163.94954919815063,896.2181210517883,0.9221667672798936,-3363.3181265263165,633.5127420993666,0.7280697677885272,3210.136042245778,11.120938887008181,1000.0,1
13.308557033538818,-150.21932125091553,910.1261496543884,0.8559763011867091,-3350.010736713905,642.960326913999,0.6695038107258503,3210.925517558947,10.684086698700712,1000.0,1
13.40858006477356,-137.7054899930954,923.7735271453857,0.7911989210209688,-3332.8962375820033,657.4432020051582,0.596649419167554,3206.2713165867704,11.146865362573255,1000.0,1
13.508540630340576,-124.34620410203934,936.5005493164062,0.7268642441581333,-3316.2544533344844,671.5434847112012,0.5333535794185558,3202.886279217909,11.08734438034883,1000.0,1
13.608505010604858,-110.17872393131256,948.3631253242493,0.6658680831139708,-3299.304887050127,683.4566981396273,0.4669720538334052,3200.109544914463,11.395903039686855,1000.0,1
13.70845890045166,-95.44196724891663,960.0013494491577,0.6102379000132897,-3277.4793357928975,690.088761419121,0.4060378510488725,3193.464360218754,11.699800982025861,1000.0,1
13.808460235595703,-79.83128726482391,970.1591730117798,0.5603683182239885,-3256.2538803306425,697.9036947677033,0.35495646963085237,3188.068935135012,11.769231986366975,1000.0,1
13.908457040786743,-64.08838927745819,979.8368811607361,0.5108716733821054,-3236.5691390815587,706.9513489347152,0.3102109811606371,3184.1954433696224,11.497010778463718,1000.0,1
14.025194644927979,-43.91951858997345,990.9685850143433,0.4573169741371759,-3214.7444231086624,714.1354042467747,0.2548343292378001,3182.8866120378593,11.601400977380381,1000.0,1
14.183558464050293,-20.84139734506607,1001.6541481018066,0.39785248984599425,-3183.8583223852115,720.2173772113591,0.19774359983999956,3175.512985975598,11.465394840391115,1000.0,1
14.30853009223938,2.884422428905964,1011.5587711334229,0.36398015462393934,-3156.61637794984,721.8873127845271,0.15136571821448563,3172.7519382037913,12.181909869814325,1000.0,1
14.466866493225098,29.646795243024826,1021.9078063964844,0.32300895678595626,-3129.4254296453705,722.6605617020392,0.12505241243783463,3173.2138653923935,11.342074518141677,1000.0,1
14.60024356842041,54.60013821721077,1029.909372329712,0.3055158533858464,-3094.6848227442765,727.8140745243859,0.08844723909825958,3163.741034644632,12.437115463431887,1000.0,1
14.766856670379639,84.26669985055923,1039.8246049880981,0.3010778622486473,-3062.8285972882354,731.1321155835157,0.08351997307812631,3162.198580463902,12.465148849245772,1000.0,1
14.90023136138916,108.77753049135208,1047.6120710372925,0.300666311901204,-3030.3083952452016,735.0287990413492,0.08670883301677115,3154.6107130815694,12.258860535337432,1000.0,1
15.06693148612976,138.35406303405762,1056.915044784546,0.2884524338631665,-2998.0183968857423,738.1572280436407,0.08203048180598368,3152.5289456366304,11.827106651728398,1000.0,1
15.208584070205688,163.71196508407593,1064.5411014556885,0.26939483391493785,-2965.11049239213,740.9477705895945,0.07157184316448349,3145.511502790676,11.334422460656555,1000.0,1
15.358614444732666,191.0792738199234,1071.7802047729492,0.23304875025066527,-2932.467094442564,744.4577705949263,0.04968422236082768,3140.649915320394,10.506013560496571,1000.0,1
15.525226831436157,221.67649865150452,1078.1276226043701,0.1799260641039057,-2898.991777099228,749.0071973224572,0.004895737432236221,3137.9755801495326,10.028499005082743,1000.0,1
15.658549547195435,246.76832556724548,1082.032561302185,0.1273099749211959,-2865.5266407309505,751.0448889701908,-0.0499325062601481,3129.84549083191,10.155246122117928,1000.0,1
15.78352427482605,264.4236385822296,1084.9025249481201,0.07565124909753011,-2838.6269072238606,749.1513328390556,-0.09782247205310117,3121.1618914805,9.939312078360496,1000.0,1
15.916892528533936,291.042298078537,1085.5756998062134,-0.007992433178969808,-2811.788681095805,746.4489051665671,-0.16431678067255368,3121.308550618885,8.956725346518844,1000.0,1
16.025192975997925,312.3316466808319,1085.1175785064697,-0.06020439253300793,-2791.427228274854,744.7083585524182,-0.21678557038344679,3122.3705082670617,8.971440642017473,1000.0,1
16.125203132629395,329.57544922828674,1083.8252305984497,-0.12413944919903376,-2771.8751141194393,739.4945146925629,-0.26962049701563434,3120.5062471987117,8.335450039032134,1000.0,1
16.21686887741089,346.30367159843445,1081.1235904693604,-0.18188422729895856,-2751.277184516276,735.1217436154063,-0.3326989218363552,3116.84527017218,8.641045485547538,1000.0,1
16.31688356399536,365.3073012828827,1074.6848583221436,-0.24788914737031034,-2733.691111622904,731.0413221832763,-0.3907085812111362,3117.9932718212544,8.182950791527208,1000.0,1
16.416918754577637,383.239209651947,1070.1674222946167,-0.31511406636106176,-2713.7592761216015,724.0704167327933,-0.4497568492251974,3116.2770669731076,7.714463200011335,1000.0,1
16.516908884048462,400.35301446914673,1064.3326044082642,-0.39309961996731213,-2696.05118365913,715.6219369667014,-0.5086602463286028,3115.977870231744,6.621136168390202,1000.0,1
