time_stamp[s],x_true_pose[mm],y_true_pose[mm],theta_true[rad],x_pose[mm],y_pose[mm],theta[rad],p_err[mm],a_err[mm],num_particles,valid_pose
5.258322477340698,47.872960567474365,7.064860314130783,0.015378575325344994,179.26698391427294,287.34300250612154,2.0774779238239023,309.54842329085255,118.14958960564405,1000.0,1
5.416618585586548,75.47763735055923,6.815105676651001,0.0188793597090509,231.04643640360788,400.4766837591273,2.074671996046521,423.28606083497885,117.78824161620992,1000.0,1
5.5999672412872314,104.39101606607437,7.232576608657837,0.018640228722539284,270.35698526605967,495.1116335880283,2.0644454940867325,515.3354996228868,117.2160074110097,1000.0,1
5.783323526382446,133.21098685264587,7.436644285917282,0.0188329977631897,313.9513279170325,575.0778077589995,2.0637555611849905,595.7210432384819,117.16543231514261,1000.0,1
5.958315372467041,160.34308075904846,7.4817463755607605,0.019931223551270867,326.8766287802185,645.5367618998288,2.0669464687187307,659.4297729494727,117.28533414703293,1000.0,1
6.133356809616089,188.40038776397705,7.891461253166199,0.020484798963807657,376.03617817359714,702.3789806265295,2.0708290195274173,719.3887018907167,117.4760703873352,1000.0,1
6.291714906692505,213.5506123304367,8.361827582120895,0.021318428414841988,366.96384569041794,768.639154988744,2.064077537155469,775.6012085721126,117.04147549274354,1000.0,1
6.475029230117798,245.06613612174988,9.13279876112938,0.021468414225638315,368.3216055499034,813.8023752755596,2.0608803212448734,814.054689877693,116.84969496092884,1000.0,1
6.658351421356201,269.0691947937012,10.114483535289764,0.01985411299477467,367.26537040541456,860.6191963466541,2.075929491020393,856.1546328900567,117.80444152163324,1000.0,1
6.8333518505096436,302.5185763835907,11.158779263496399,0.021710718316803844,366.9147999398927,898.7907307493756,2.072986487383982,889.9648054316212,117.5294441850014,1000.0,1
7.016676187515259,331.3959836959839,11.577524244785309,0.02160149289549317,346.95158171917353,935.4251745216511,2.083463705629115,923.9786023236389,118.13600272714164,1000.0,1
7.15006685256958,353.2537519931793,10.790839791297913,0.022812890241675023,320.3028618276507,969.8303670233249,2.080065504003736,959.6054272231534,117.87189216082335,1000.0,1
7.333322286605835,384.9720060825348,10.487597435712814,0.026753220648226654,313.81618192917114,991.703589208882,2.087839129403476,983.7926477781527,118.09152378556169,1000.0,1
7.466642379760742,407.9985320568085,10.901011526584625,0.02581896829184138,288.620286780482,1018.541129175265,2.106311672273199,1014.6870316212292,119.20345124589232,1000.0,1
7.625033855438232,433.77140164375305,11.825162917375565,0.02499889670044797,270.71737489155396,1046.8328441128233,2.1064225488368375,1047.7726450779694,119.25679064612112,1000.0,1
7.774980306625366,458.90066027641296,12.901809066534042,0.024844491706164946,262.5796367732228,1061.1702780720077,2.117237333856169,1066.4936602626476,119.88527893857831,1000.0,1
7.933372497558594,485.4879081249237,14.248248189687729,0.024098245351326066,226.62877969271963,1093.7962249378493,2.1296745526588987,1110.1494865439201,120.64063585146476,1000.0,1
8.075042247772217,510.08278131484985,14.919877052307129,0.023888018101103463,223.40469513275082,1109.194674253161,2.1175971193810805,1131.203631927515,119.9606950314713,1000.0,1
8.233402967453003,536.7079377174377,15.233136713504791,0.024069593294313543,195.45120352092957,1135.6240412754707,2.13627092634045,1171.2096044942796,121.02022186544998,1000.0,1
8.391699314117432,564.4746422767639,15.330895781517029,0.025941463172680312,171.4424372255457,1163.2814908694902,2.140468362096847,1213.3692277992936,121.15346697524078,1000.0,1
8.533324480056763,588.259756565094,16.094665974378586,0.02692056447852681,148.2220583148919,1184.3199172136913,2.142975327287165,1248.3522794125427,121.24100712749147,1000.0,1
8.69165563583374,616.3100600242615,17.045950517058372,0.027015365341403582,117.45463087055919,1210.8658498857124,2.155879999214683,1293.855745948793,121.97495867560217,1000.0,1
8.833347082138062,639.2055749893188,17.93808862566948,0.027709017963718805,87.61721678229429,1232.4180521033009,2.1674135466678384,1333.8707953164542,122.59603889977497,1000.0,1
8.991634845733643,665.1731133460999,18.00442487001419,0.02780224621457948,65.31981627204021,1242.7353769516756,2.1782693749547097,1363.7411348923492,123.21269045842573,1000.0,1
9.12498140335083,690.0956630706787,17.662644386291504,0.032631011784726605,17.781772362547404,1266.575178929466,2.2139683295713715,1418.3752982120639,124.981422003562,1000.0,1
9.29165768623352,719.3609476089478,19.250404089689255,0.03141391949939673,14.833246946180608,1276.6198740316195,2.1984824081038767,1441.297077268672,124.16387831283083,1000.0,1
9.433350801467896,744.2526817321777,19.675562158226967,0.03192596975270776,3.5695862626837935,1288.461991055279,2.1904787940861663,1469.1597769022965,123.67596669035096,1000.0,1
9.591646671295166,771.6469764709473,20.182285457849503,0.03181479506846536,-28.457455522990355,1305.3256568423212,2.2049233936602235,1513.8561976323206,124.50995112289668,1000.0,1
9.983370304107666,796.0049510002136,20.640557631850243,0.12441187054129108,-57.29529420718886,1323.1985089195964,2.269736010535242,1557.1700372579558,122.91801890918637,1000.0,1
10.125024795532227,799.3929982185364,22.425688803195953,0.17720564772883873,-62.115604461596504,1323.852869929885,2.3302786641001423,1560.740138609639,123.36199682157729,1000.0,1
10.283363819122314,797.3306775093079,22.210493683815002,0.23143659414910334,-78.27644950995827,1334.9795243356655,2.389026386556427,1577.989343666659,123.6207890254471,1000.0,1
10.408315658569336,799.0888357162476,22.46667630970478,0.27837633406666956,-83.77739190957791,1336.1656830633988,2.44834662795639,1582.8006369179595,124.33013950864387,1000.0,1
10.566703796386719,800.7557392120361,22.63678051531315,0.33754354925765095,-77.52230904836172,1333.3440162407999,2.483206108420247,1577.7597370446617,122.93740889925606,1000.0,1
10.70834231376648,802.105963230133,23.165948688983917,0.3933508854584946,-87.16201969598426,1335.5271395248117,2.5461330977665706,1585.272670763461,123.3453349760891,1000.0,1
10.866693258285522,803.4080266952515,23.97213503718376,0.4545055164933956,-74.1081529504576,1328.3811589466773,2.587844931098257,1572.106086495602,122.23134472576825,1000.0,1
11.008357048034668,804.9524426460266,24.506285786628723,0.5097880443639747,-63.072567676017556,1318.9061196799462,2.6375777706471037,1558.5051647420462,121.91337100731995,1000.0,1
11.166730403900146,805.9423565864563,25.5267471075058,0.5721010795624636,-78.80527308613627,1324.0347484467472,2.7048464143677373,1571.273813742628,122.1973064605579,1000.0,1
11.28344178199768,806.989848613739,26.30240097641945,0.6172095373131274,-97.1428176249851,1332.7096556751897,2.774276119423126,1588.759199277701,123.59081128361258,1000.0,1
11.441627979278564,807.6622486114502,27.32321433722973,0.6823137284789206,-318.8928858061567,1401.514163419906,3.041000281850464,1776.9432279685861,135.14278470244804,1000.0,1
11.566741466522217,808.3776831626892,28.133973479270935,0.7291005229407128,-106.50438947739555,1338.1066258829367,2.892726970312276,1597.8227551526834,123.9666638772747,1000.0,1
11.708393096923828,809.0706467628479,29.03466299176216,0.7868708245338566,-114.66587744890957,1337.8246802218673,2.9618418857593265,1601.9427191269972,124.61666237130919,1000.0,1
11.866729736328125,809.9263310432434,30.174484476447105,0.8505735570535048,-119.68866792293251,1327.9538601994898,3.0272599017709187,1596.3756933613633,124.71494087606605,1000.0,1
11.975025177001953,811.0719919204712,31.093763187527657,0.8947117714355816,-106.11819708428743,1317.8910264297328,3.0727169263952026,1580.2167697800876,124.79050313692314,1000.0,1
12.141655206680298,811.5721344947815,32.29489177465439,0.9654294075542857,-116.73651548673962,1324.1892351956024,3.138779580268162,1590.8324689273716,124.52379230053364,1000.0,1
12.266611337661743,812.0240569114685,33.41250866651535,1.0173473083556257,-104.58693485980024,1313.5721265627735,-3.1067733132741204,1574.4790749731171,123.70529417774607,1000.0,1
12.374919652938843,811.8228912353516,34.03801843523979,1.0639846864899811,-83.31629441399134,1310.3159780184217,-3.0738581949707386,1558.8969150661565,122.9190666040494,1000.0,1
12.525042533874512,812.3487234115601,35.10812669992447,1.1248857651737199,-66.46551137821814,1303.98315721231,-3.0367342952724905,1543.4890029821888,121.5567345994536,1000.0,1
12.633294820785522,813.2089376449585,35.961464047431946,1.1710340169638918,-59.24166757808803,1307.02787902434,-2.9893144437869634,1541.6808651067543,121.6295918952276,1000.0,1
12.783331155776978,814.8506879806519,43.2465560734272,1.2140930555068226,-41.27666332529088,1287.9141937853558,-2.9555449672844976,1510.6791750803748,121.097339196784,1000.0,1
12.958284616470337,829.2917609214783,78.90898734331131,1.2244581600283464,-83.83559276461996,1287.7779686849888,-2.9173838837459107,1514.9804546923508,122.6899314818959,1000.0,1
13.14168643951416,839.3750190734863,107.96377062797546,1.2382991888048613,-108.54035621174029,1279.818527887726,-2.9160953294815264,1507.2448808386914,121.97072766990527,1000.0,1
13.32502555847168,850.4291772842407,137.32708990573883,1.249264318673358,-148.41229515400016,1278.5631870272193,-2.8862773543214155,1516.6094145941672,123.05091613692785,1000.0,1
13.500012159347534,860.6557250022888,164.1765981912613,1.2592335599712512,-159.85639697571955,1269.0854106330235,-2.887734054073871,1504.0839321379385,122.39625793777762,1000.0,1
13.658310890197754,868.4375882148743,190.02245366573334,1.2686859147886111,-146.77401513885758,1254.7098547885482,-2.9285106056266614,1471.12673203015,119.51835359321024,1000.0,1
13.84171438217163,877.5721192359924,220.72593867778778,1.2801503345457832,-173.19413298128518,1250.7822481573114,-2.9126764690997113,1471.4366168807,119.76871992178604,1000.0,1
14.016677141189575,887.9594206809998,253.15696001052856,1.2910890872067478,-172.68210102290786,1240.2316591391857,-2.932492875355405,1448.8881596666838,118.00657911760737,1000.0,1
14.149986505508423,892.985463142395,272.9046046733856,1.2947058278620975,-189.0568543793574,1235.2731908565916,-2.9355353746105854,1448.091458637923,117.62503277596892,1000.0,1
14.333310604095459,901.0007381439209,303.04738879203796,1.304394827906061,-178.28662699984463,1229.930128515474,-2.9688047773575335,1422.663990461625,115.16369760142668,1000.0,1
14.500012159347534,905.887246131897,330.89596033096313,1.3127113422355468,-182.69455920730275,1226.3203738876641,-2.9901283224645394,1409.5372387095395,113.46544729119883,1000.0,1
14.674991607666016,915.7992005348206,360.2059781551361,1.3279357249605293,149.93978123362632,1229.0295700463591,2.8806842081053556,1158.1861180134777,88.965934729539,1000.0,1
14.816617012023926,923.2615232467651,384.18009877204895,1.3336145845878198,-177.94727787079142,1222.3492608981828,-3.0358333599998635,1383.903308760403,109.64907397301334,1000.0,1
14.975002527236938,929.0136098861694,412.4189019203186,1.3400673671928789,95.5051402989752,1248.6657277118463,2.8855823380970396,1180.6968800331406,88.55148500709264,1000.0,1
15.116634368896484,934.3661069869995,437.3287260532379,1.3439430360460678,58.366778330456334,1253.9978681063665,2.900019112466807,1197.632377396548,89.15659178018491,1000.0,1
15.27496862411499,940.3972625732422,463.84739875793457,1.350135033452913,29.61467525394545,1259.1063124368807,2.907261058559019,1209.1160660374378,89.21674940856174,1000.0,1
15.416687250137329,946.4040398597717,489.95357751846313,1.354823973182998,-1.9314147216590931,1264.892144260467,2.917232880443154,1224.6917639309574,89.51943625965379,1000.0,1
15.575115442276001,951.5390396118164,515.2206420898438,1.3887901391229474,-27.241593962660673,1271.6983758402703,2.938696111708505,1237.0408604086754,88.80307087127152,1000.0,1
15.716651201248169,956.0160040855408,537.4594926834106,1.3958686771947921,-50.91756582055471,1275.399349815752,2.9533358087048724,1248.387138250124,89.23629336587435,1000.0,1
15.874996423721313,960.6203436851501,564.8290514945984,1.402887170955812,-74.29081753191811,1282.092035535127,2.9576787985461546,1259.1692896058037,89.08299828320267,1000.0,1
16.00827670097351,964.420735836029,586.5882039070129,1.4080025778847582,-101.28838231119718,1284.9642024644183,2.9643031060182894,1274.1526438630467,89.16945191603237,1000.0,1
16.1749484539032,969.2184925079346,615.7163381576538,1.4141096366831514,-132.46006831356527,1289.2828351990029,2.9681191148730126,1291.273587320009,89.0381844236064,1000.0,1
16.316616773605347,973.6683964729309,640.4728293418884,1.422836598387724,-165.0406895282668,1294.0092804652174,2.9718470770371974,1312.9235604133846,88.75176284815434,1000.0,1
16.474945545196533,980.3323149681091,666.9608354568481,1.4345786102860143,-196.2641652236748,1303.7783097070223,2.9881941062526103,1337.8773384395395,89.01561090501012,1000.0,1
16.608309745788574,981.5775752067566,691.4370059967041,1.4386095804518566,-227.96430122416902,1310.62690611745,2.9910984745574694,1358.8184879709224,88.9510613731842,1000.0,1
16.77494215965271,985.5252504348755,722.3647832870483,1.4428739500234602,-260.2950266707814,1313.8022049000829,2.999882887438142,1379.081718583743,89.21004077801021,1000.0,1
16.90827488899231,988.60764503479,745.6986308097839,1.447024326354258,-297.2660220152695,1317.0195455511703,3.009006718665899,1407.081616408125,89.49499875320464,1000.0,1
17.07500720024109,992.9175972938538,774.711549282074,1.454055704840066,-329.8166000724481,1319.3743201507252,3.0188295829903646,1430.483586362525,89.65493911033026,1000.0,1
17.233293771743774,996.772289276123,803.3899664878845,1.4601991467966418,-359.97808410852775,1319.9318568608403,3.025732018246202,1451.7531126846109,89.69842622305666,1000.0,1
17.36670231819153,999.4895458221436,828.435480594635,1.4630694675239826,-380.94108470617454,1326.1649133899255,3.0244658554187183,1467.4206329377855,89.46142317333994,1000.0,1
17.525017499923706,1002.846360206604,852.5393605232239,1.4684952599286738,-414.63295115121053,1328.6045349436201,3.0297680161079072,1495.2878145772963,89.4543395978277,1000.0,1
17.66667413711548,1005.3991079330444,878.9112567901611,1.475881883923053,-444.35865455711746,1331.2426283818716,3.035983871223652,1518.6840486508438,89.3872594822967,1000.0,1
17.96673822402954,1006.506085395813,891.5859460830688,1.5734046717001795,-453.01644430021156,1332.145970598445,3.0829415943347764,1524.5652330717999,86.49009468612867,1000.0,1
18.075022220611572,1006.362795829773,894.179105758667,1.6151041209144155,-455.6817217582247,1333.5997240468703,3.1410878546910155,1526.6514504581285,87.43242755101419,1000.0,1
18.258343935012817,1006.4897537231445,897.4019289016724,1.6955820335427711,-464.1286405182346,1335.4031789061996,-3.081747189242375,1534.4587177524916,86.2791981898973,1000.0,1
18.34165906906128,1006.2639713287354,898.5161781311035,1.7334161945107505,-458.6089788357236,1341.787193442407,-3.0400968467945395,1530.4711539714297,86.49784928254907,1000.0,1
18.46667170524597,1005.907416343689,900.71702003479,1.7873500599638894,-461.51439566971715,1342.4425326085955,-2.983633950605322,1532.4647476634818,86.64275206998524,1000.0,1
18.608204126358032,1004.9759149551392,904.4065475463867,1.8571315751716302,-465.9284141884302,1342.2071580383063,-2.9252564782582815,1534.6755096893908,85.98934854468081,1000.0,1
18.708303213119507,1003.9790868759155,911.1320972442627,1.8972095236654014,-462.8815150869741,1340.6422051777015,-2.8721010214234948,1528.4498547246899,86.73863457916818,1000.0,1
18.849997520446777,1003.2703876495361,910.2886915206909,1.9637783171344985,-466.9655561339399,1342.593251448098,-2.8165695708711596,1532.4754363208951,86.10624141299907,1000.0,1
18.94161868095398,1002.9686689376831,911.3649725914001,1.9931920468372162,-471.9185026451809,1343.4223177396555,-2.761682743593508,1536.8688032477787,87.5657423951677,1000.0,1
19.108332872390747,1000.4575252532959,913.2043123245239,2.0633833011495057,-474.2497016940865,1342.5379678102715,-2.70960210902241,1535.9325483052937,86.5280803196311,1000.0,1
19.224966049194336,999.3476867675781,914.7502183914185,2.1140999970685512,-476.20783371652794,1344.127029990346,-2.6542374395395583,1536.7591029077987,86.79438958812561,1000.0,1
19.349989652633667,998.0011582374573,915.883481502533,2.1704407853583843,-476.33663471644724,1345.240350687131,-2.6025994976768225,1535.5843346583704,86.52493633615475,1000.0,1
19.483310222625732,996.4954257011414,917.3895120620728,2.2256168146428075,-472.07758586708667,1346.8181393846853,-2.555007985133436,1530.07046774675,86.09037553724707,1000.0,1
19.600008487701416,995.3240156173706,917.933464050293,2.2804178312849612,-476.1690946032973,1348.1414796057284,-2.498154429150286,1533.0919444296355,86.20797737877069,1000.0,1
19.724934339523315,993.9414262771606,919.2394018173218,2.3337052081882623,-470.28824027845013,1354.08925502805,-2.446150257170497,1527.4367126853233,86.13445515240305,1000.0,1
19.84161877632141,992.8852319717407,919.4151163101196,2.385754130505624,-474.0230842177697,1353.5320874634099,-2.3879339062667158,1529.7965723419736,86.48782278085321,1000.0,1
19.983253240585327,991.0365343093872,920.8123087882996,2.4473217696177754,-470.4001714456511,1355.824375464301,-2.3315851016634164,1524.8058050394038,86.18880558951874,1000.0,1
20.099944353103638,989.9778366088867,920.8057522773743,2.5036936129348324,-468.11241504147466,1356.6495010334888,-2.2809454107009564,1521.8367045407983,85.86037745207437,1000.0,1
20.199928760528564,988.8542294502258,921.8074083328247,2.547725409660469,-466.73331648273427,1358.0811715665386,-2.231760855262088,1519.5624042339439,86.15560877919181,1000.0,1
20.324949741363525,987.7907037734985,921.8748211860657,2.6075981630334395,-462.0641324515479,1362.7823582316146,-2.1800984026114962,1515.413640676607,85.68519319926631,1000.0,1
20.458279609680176,986.2092137336731,922.616183757782,2.6664235703436883,-460.29487306098457,1362.4607320812775,-2.124365309638502,1511.8985745755388,85.50801663881383,1000.0,1
20.57495355606079,985.4987859725952,922.7575659751892,2.7251899644512636,-455.37252569630107,1366.2067358679,-2.0758031833373685,1507.5666827934945,84.9233551604835,1000.0,1
20.6749370098114,984.440267086029,922.8631258010864,2.7696654668146197,-449.6316579728242,1369.9783931601428,-2.0269869808322043,1502.1565659236608,85.1720589587409,1000.0,1
20.79999542236328,973.7071394920349,926.029622554779,2.8008711445196353,-449.2087166002467,1357.8738283047755,-1.9733554069264287,1487.0033461827434,86.45696816284293,1000.0,1
20.974926233291626,938.3760690689087,940.4244422912598,2.8186056542042794,-451.29498265323076,1340.7509420747756,-1.9585445863706108,1446.1835770134574,86.28945311515291,1000.0,1
21.15827512741089,912.3862981796265,950.8400559425354,2.843983080989363,-463.213747654083,1315.4398360042464,-1.9405143288803608,1423.0981996049152,85.86849132319084,1000.0,1
21.316620349884033,885.7932686805725,959.7229957580566,2.855098719175332,-465.0101107716401,1292.9671591955216,-1.9245222790494552,1391.3020672753469,86.14788912961414,1000.0,1
21.475062370300293,861.1062169075012,967.880129814148,2.8732617158836753,-475.057362035248,1268.5855325671187,-1.9123865831032438,1369.5827280372378,85.80255023408803,1000.0,1
21.65829372406006,830.6618928909302,976.2713313102722,2.8923345661548616,-491.7201588366398,1236.6931978200173,-1.8880197373684513,1347.781079881906,86.10587383091405,1000.0,1
21.799973964691162,805.7350516319275,983.0101728439331,2.904769134329531,-496.71816806111633,1220.2423403465882,-1.8834625200649286,1323.8819776652238,85.65453487225363,1000.0,1
21.94997000694275,778.9928913116455,989.6294474601746,2.918859615095361,-500.93227033524624,1200.3818257270943,-1.8735553089377748,1297.1603541436136,85.41485117739226,1000.0,1
