time_stamp[s],x_true_pose[mm],y_true_pose[mm],theta_true[rad],x_pose[mm],y_pose[mm],theta[rad],p_err[mm],a_err[mm],num_particles,valid_pose
4.725146770477295,31.628917902708054,6.7926086485385895,0.03620832446936399,101.13481537113852,-9.911503546593888,0.0016399027474151692,71.48494349944988,1.9806246690960256,1000.0,1
4.8834617137908936,54.395079612731934,7.417302578687668,0.0369588926996443,149.8478635881918,12.915348251879452,-0.007239912654825449,95.61099557524915,2.5324050063313415,1000.0,1
5.058453559875488,82.97361433506012,7.759980857372284,0.039349994175298234,190.6386260757573,11.97415395895955,-0.011335949155168902,107.74745476369546,2.9040906334750307,1000.0,1
5.2417685985565186,112.25207895040512,8.733592927455902,0.039021058315365384,237.51083297477913,22.33099930903312,-0.007913884650093728,125.99462258384041,2.689174143608039,1000.0,1
5.425135850906372,141.1776840686798,9.13625955581665,0.040411540477473674,264.9676494062803,19.73329899334793,-0.01265639748106093,124.24271714319889,3.040568872486131,1000.0,1
5.600058317184448,168.13555359840393,10.29152050614357,0.04131533826712413,311.421469407539,25.171180598434923,-0.009187191800158374,144.0564401674728,2.8935818275878287,1000.0,1
5.766669034957886,194.21333074569702,11.197037994861603,0.04184867718268839,361.26467861996434,29.90294744485321,-0.0038958180276921273,168.09540111187087,2.6209665115112126,1000.0,1
5.941789150238037,223.0796217918396,12.052837759256363,0.04288909798154756,382.7114022834348,38.079501965092774,-0.0028825867567130853,161.73958264011995,2.6225243567056973,1000.0,1
6.116766691207886,251.46588683128357,13.570312410593033,0.04257075406135872,406.3744143931095,42.605278074202495,-0.0049535854343872535,157.60609487726023,2.722944077253131,1000.0,1
6.3000807762146,278.47665548324585,15.434280037879944,0.041397091353564,426.46582842746045,48.2151086038002,-0.012265809553464372,151.5763109136151,3.0746577384014833,1000.0,1
6.441740274429321,304.5539855957031,16.589639708399773,0.04189727341943087,442.3514239872066,48.490444368115,-0.016623305097670498,141.44184446336064,3.352982163693862,1000.0,1
6.616764068603516,332.6227068901062,17.288293689489365,0.042422062201274535,466.99701683983085,52.713719247571014,-0.023920109523864128,138.96552072523548,3.8011264435825893,1000.0,1
6.77508807182312,358.80547761917114,17.893675714731216,0.03755987229715216,487.9921924450588,58.616115467780396,-0.02269119573856463,135.4530338787062,3.4521319096021514,1000.0,1
6.933429002761841,386.2362205982208,17.677774652838707,0.049550914327831576,519.8534161695619,56.39611399827704,-0.0174251276761538,139.1138553632187,3.8374445353192868,1000.0,1
7.100115776062012,414.03499245643616,19.39261704683304,0.04906252172809855,555.6864815460854,58.4613642391283,-0.012876553739178068,146.9405028182852,3.5488476112172473,1000.0,1
7.233428716659546,436.6210401058197,20.21666243672371,0.04898034568807383,586.7038487175702,58.76269636079697,-0.020182671198046422,154.95369041125522,3.9627489659667354,1000.0,1
7.400115013122559,464.2428159713745,22.292766720056534,0.04838297625159304,598.3882377788842,59.2871926785336,-0.0242349716544081,139.15308743938076,4.16070193191474,1000.0,1
7.533438682556152,486.46610975265503,23.735594004392624,0.048068199571484234,629.2537479075665,58.54108616989676,-0.028838599818398408,146.96847245154626,4.40643502089957,1000.0,1
7.700120210647583,514.983057975769,25.019457563757896,0.04830728730609181,649.2317989587763,53.365849893582876,-0.02586345009186562,137.20875487241668,4.249670216276098,1000.0,1
7.858392000198364,542.414665222168,26.021545752882957,0.04875173956823385,671.7294354150383,53.01924794035006,-0.028304256030553625,132.10293605154294,4.41498333398917,1000.0,1
7.9917356967926025,565.1865005493164,26.74892172217369,0.05052267592300204,700.4693368396549,53.52018018761966,-0.03239636160575477,137.9062945430057,4.750910891684649,1000.0,1
8.158398866653442,594.0976142883301,28.50320376455784,0.051053089372693865,735.9648231363741,54.04858634105293,-0.02954448515234408,144.1487825731249,4.617900859275795,1000.0,1
8.29176926612854,616.8999075889587,29.596054926514626,0.05168931084861741,774.337673067198,56.28861301330649,-0.025570420061994184,159.68450975594916,4.426656507494473,1000.0,1
8.450132369995117,643.5816287994385,31.11691027879715,0.05229543493724365,804.459005243442,54.93993167908519,-0.019938602850473983,162.6316900242514,4.138705502424727,1000.0,1
8.59177851676941,667.0600175857544,32.0931039750576,0.05100387754589228,842.5779536238957,55.90436327201639,-0.019197152385488265,177.1257235423361,4.022222732539672,1000.0,1
8.775117874145508,701.0918259620667,33.831432461738586,0.05980465416306278,882.8974745654625,56.1885516422275,-0.005196736492938046,183.1751474467867,3.724305347069953,1000.0,1
8.933428049087524,728.1723618507385,34.85416993498802,0.05978898555921237,917.1532628347414,55.744576176634155,-0.009255235804154882,190.13203309717835,3.9559424838879376,1000.0,1
9.075145959854126,752.1934509277344,35.66655144095421,0.056876961132705316,956.8347478566841,58.46359883320864,-0.021757153812037428,205.9071775790423,4.505402912080352,1000.0,1
9.23337984085083,779.2827486991882,36.81008890271187,0.05595365901883824,981.166056812546,59.651269765621635,-0.023391713384209614,203.17133074822615,4.546154962588437,1000.0,1
9.633386373519897,802.3698329925537,37.85482048988342,0.14925159632479745,1017.3978168735242,61.347327009598146,0.028678264804923782,216.30749343121184,6.908343017920462,1000.0,1
9.75010347366333,805.0280809402466,38.650866597890854,0.1853837042711019,1031.229574329149,61.70094685802796,0.08605327301102023,227.37286955872383,5.691214488417019,1000.0,1
9.908421039581299,806.554913520813,39.0140525996685,0.2456451716086712,1032.6839639899947,61.03621365388375,0.13460526471293308,227.1988623289992,6.3621180226514005,1000.0,1
10.050111293792725,807.902991771698,39.70362991094589,0.29907420312786537,1041.1929284583352,58.26666625052211,0.1873730694216955,234.02730797366286,6.400003528190037,1000.0,1
10.166701078414917,809.066116809845,39.90829363465309,0.34428637193183387,1049.5184357631633,56.50945862172148,0.23794904858902513,241.0247214892203,6.092679832260911,1000.0,1
10.325112104415894,810.5775117874146,40.67567735910416,0.40573718974935563,1054.011452401998,55.40483184416106,0.28708086637552377,243.87913284040766,6.798506541860067,1000.0,1
10.450145483016968,812.2133612632751,41.038841009140015,0.45521635952923367,1058.3673762888936,54.542435895793005,0.33207172254193906,246.5241290180238,7.055667969042595,1000.0,1
10.60851788520813,813.4226202964783,41.94305092096329,0.5171176368597974,1057.8156650171322,55.060920223685656,0.3872532343923642,244.74484428251984,7.440682170372236,1000.0,1
10.725155591964722,814.102828502655,42.77271404862404,0.5616633784070459,1059.1800558768402,57.10093133528024,0.43946254161726406,245.49571317648648,7.001592201021501,1000.0,1
10.866785287857056,814.8564696311951,43.78329962491989,0.6162068928394094,1062.1800819775012,54.77111234387202,0.4932312081040154,247.5675690642308,7.045987718069461,1000.0,1
11.008453607559204,816.2391185760498,44.64338719844818,0.6684608816856873,1066.1967932357104,54.590924565877785,0.5440907945606914,250.1555368584536,7.125881089936602,1000.0,1
11.150123119354248,817.0404434204102,45.65929248929024,0.7265130740694007,1074.3973979482007,55.521709246226315,0.6018389210563198,257.54585865066196,7.1433027820177735,1000.0,1
11.308452129364014,818.2873725891113,46.87419533729553,0.7889440179377123,1076.1916841793252,52.82718952147624,0.665737340710169,257.97300648823517,7.059222612968822,1000.0,1
11.450136661529541,818.9964890480042,47.92322590947151,0.8477319966915555,1076.3521379979143,52.76209747469144,0.7256050628242073,257.40113582588185,6.9973578754723675,1000.0,1
11.608537912368774,819.5860385894775,49.1529256105423,0.9148863402990378,1080.346546366737,56.17187233840913,0.7917941143462939,260.854955922679,7.052665037962926,1000.0,1
11.725214004516602,820.2886581420898,50.1331202685833,0.9624735692297582,1082.3309664392336,58.84914787856205,0.8479725513158796,262.1872240880422,6.560425076417082,1000.0,1
11.85014796257019,820.4155564308167,51.07680708169937,1.0148195288504271,1088.7711655305584,62.02645344227924,0.8989802983932305,268.57890403141334,6.637099007240672,1000.0,1
11.991812705993652,821.0176825523376,52.10132896900177,1.0701654903835207,1089.3303386594957,65.06461812834296,0.9553921216021527,268.62562851132947,6.576029631670948,1000.0,1
12.108478784561157,821.4999437332153,52.7917817234993,1.1201541553888372,1088.7703749036632,62.309018841848676,1.007166038737609,267.4398272142801,6.473742219247203,1000.0,1
12.225161790847778,821.8684196472168,53.84786054491997,1.171227367268275,1087.9206642493132,61.86222029166083,1.0588609801229174,266.1729265345443,6.438119742562052,1000.0,1
13.041789531707764,834.2989087104797,83.90749245882034,1.1792993216048024,1100.4902499795483,87.70397503364924,1.100339416942436,266.2184130494484,4.524069287908944,1000.0,1
13.200125455856323,842.0621156692505,104.21164333820343,1.1761510428052657,1109.122085487985,113.8811351577401,1.1043637180426107,267.2349650618936,4.1131107314351185,1000.0,1
13.400141477584839,855.9113144874573,133.47011804580688,1.1793688415210526,1126.1052912050525,144.37664601860925,1.1049743397023954,270.4140111142355,4.262490973187382,1000.0,1
13.5834379196167,867.889404296875,159.61632132530212,1.1806226700190658,1140.673023781293,176.4189979421832,1.1106899389588436,273.30062751576565,4.006850339574178,1000.0,1
13.758396863937378,877.8665065765381,185.24380028247833,1.1800766602016073,1151.1345817280096,203.55821523106505,1.111687837004518,273.88110320337785,3.918390935059597,1000.0,1
13.941818237304688,888.9540433883667,212.2211456298828,1.1808490716604643,1162.0631440617499,235.61159627593327,1.1209328229270206,274.1089091074011,3.432948176682389,1000.0,1
14.116735696792603,899.8977541923523,239.31565880775452,1.1807281879129565,1171.588530643827,263.5990083245127,1.1239984774067773,272.7738240237839,3.2503729850030365,1000.0,1
14.283385753631592,910.7134938240051,266.6049897670746,1.181459052276038,1182.6961744390985,298.220091887833,1.1347280974725573,273.81397560511385,2.677486482856043,1000.0,1
14.458442211151123,920.5115437507629,290.5510663986206,1.1820724479853608,1192.8388323665067,325.0887315628094,1.1385470757324385,274.5086564023004,2.493820131828267,1000.0,1
14.641756057739258,928.4687638282776,317.2157406806946,1.1827145574978808,1203.7035768760586,359.6423056011871,1.1479623347025745,278.4855754332704,1.9911556948693843,1000.0,1
14.81674599647522,940.6429529190063,341.6689932346344,1.1879359877641782,1214.2682683666164,383.69749010856646,1.1553534085624508,276.83426053017035,1.8668442739097124,1000.0,1
15.00018310546875,952.9011249542236,369.68278884887695,1.189390263118502,1227.001090285561,411.0623503289872,1.1564039492825522,277.2058064018981,1.8899765644939197,1000.0,1
15.158475637435913,963.7328386306763,392.7748203277588,1.1888703790683994,1239.6073920194697,433.7683675792765,1.1552589511687306,278.90363949530786,1.9257929620592915,1000.0,1
15.341822624206543,973.2304811477661,422.2371578216553,1.1867081789867266,1249.6365606293834,457.86878068251383,1.1558523362368753,278.6932602739015,1.7679095628858208,1000.0,1
15.516761302947998,983.6955070495605,449.91716742515564,1.1868557948295133,1260.4800058720434,484.26957747685907,1.1607690198601621,278.908133378669,1.4946621068513406,1000.0,1
15.700083494186401,994.9401021003723,477.803111076355,1.187552357231211,1270.6893243988384,510.3783708407601,1.1617308003667606,277.6666727335625,1.4794662287900688,1000.0,1
15.85845160484314,1005.8776140213013,503.326952457428,1.1884309137745146,1285.1591938859565,530.2133649761226,1.1516875354156586,280.5727713621249,2.1052405050147738,1000.0,1
16.03346014022827,1018.2973146438599,532.5207710266113,1.1890797676954799,1297.8707171028746,552.2758497187609,1.1450076365361372,280.27049523031,2.525147109577339,1000.0,1
16.216747283935547,1030.1599502563477,560.3979825973511,1.189875717078815,1309.771567615471,571.8631428199079,1.1412438593999217,279.8465766471223,2.786400194881472,1000.0,1
16.39174222946167,1040.014386177063,587.0177149772644,1.1899332506406881,1321.8186313187634,594.9198754345596,1.1390253445773764,281.9150168397853,2.9168081612762164,1000.0,1
16.575042247772217,1049.6760606765747,615.3510808944702,1.1896711296294202,1338.1035377838655,620.2126344918961,1.1343204603664507,288.4684458547544,3.171359741992643,1000.0,1
16.733407258987427,1060.889720916748,640.6953930854797,1.192119036803186,1349.2983908736455,643.5524574026214,1.1361414080335375,288.4228210853276,3.207281875650955,1000.0,1
16.91671061515808,1073.8461017608643,669.3788766860962,1.194304332727168,1357.7229858022295,672.3876642812104,1.1416304547397367,283.8928285389175,3.0179908992668696,1000.0,1
17.091763973236084,1087.8748893737793,696.164608001709,1.2027012224278075,1375.0845909352558,692.689766007558,1.1368594185047254,287.2307211945072,3.7724574803205133,1000.0,1
17.275125741958618,1098.5891819000244,728.5597324371338,1.1994928201116248,1386.460706855338,720.3116975971748,1.1344631666321003,287.98966120126414,3.7259246875749823,1000.0,1
17.60848331451416,1103.56605052948,744.4234490394592,1.2814923353258654,1392.2629104412254,728.4439630857702,1.1891440396777693,289.1387571638332,5.291167585862254,1000.0,1
17.775087356567383,1104.4350862503052,747.1601963043213,1.3360748999530727,1397.5758020470255,726.1437859003054,1.2386592467053386,293.8931247308851,5.581505789605059,1000.0,1
17.908443927764893,1104.6515703201294,748.5098242759705,1.3906942944975684,1399.901142992722,725.2315651142669,1.297543128782521,296.1658108441081,5.337168652195952,1000.0,1
18.075074672698975,1104.8262119293213,750.2399682998657,1.4532242472884007,1401.8057316265665,725.3027364436844,1.3487304879063855,298.0246645032176,5.987051398045021,1000.0,1
18.208442211151123,1105.1928997039795,751.7938613891602,1.5032181073592634,1402.4190899112014,725.7402131797069,1.4051774902269287,298.36588399165475,5.61731358254077,1000.0,1
18.366806745529175,1105.0995588302612,753.4084320068359,1.5656380651996225,1402.4343474222374,723.9687946907108,1.4567371886612448,298.78866904944726,6.239560610924286,1000.0,1
18.491849184036255,1104.8351526260376,754.6591758728027,1.6110432573987699,1400.684629461849,720.6565611704085,1.5041679952865716,297.7970630322314,6.1235014533833905,1000.0,1
18.650145053863525,1104.5536994934082,756.0165524482727,1.6733862735275111,1393.6405810539377,723.2345853496982,1.5652591159335068,290.9396543224103,6.195229780882379,1000.0,1
18.766790628433228,1104.4831275939941,757.3291063308716,1.7151376786622836,1392.1289749093824,731.3003784370853,1.6177348623001817,288.82110060304876,5.580770290236238,1000.0,1
18.9252769947052,1103.8570404052734,758.2723498344421,1.7775932133751706,1384.9857124558407,731.6727008283053,1.6777500485303125,282.3842622671545,5.720591958839322,1000.0,1
19.06696581840515,1103.4977436065674,760.0116729736328,1.8310986224806811,1383.4428345559838,730.4242269009351,1.73379394917441,281.50429998808517,5.57514710734861,1000.0,1
19.225281238555908,1102.7456521987915,761.4207863807678,1.8949751150607104,1380.4292045205964,733.3292592583505,1.7975475799930942,279.1008583400024,5.58218656773723,1000.0,1
19.366819381713867,1102.3577451705933,762.6135349273682,1.952283057110271,1376.0815426763475,731.5170126699754,1.8542511177814804,275.4845023181443,5.616816381022244,1000.0,1
19.483474254608154,1101.7924547195435,763.3287906646729,2.002594875339248,1373.2787797443564,729.0857837597495,1.9010141518271981,273.6373662301422,5.820146737125785,1000.0,1
19.62518310546875,1101.2898683547974,763.9935612678528,2.0596731943921904,1372.7493797638847,723.2913765301546,1.9516763810112803,274.4939601828829,6.187761607588127,1000.0,1
19.75010585784912,1100.829005241394,764.7672295570374,2.108585221244782,1368.622722741661,727.1196368150547,2.00810525970729,270.42709992136315,5.757077721735149,1000.0,1
19.866811752319336,1100.3512144088745,765.4194235801697,2.1607277297842664,1369.3180018591372,727.9302819937445,2.0559645534480278,271.5668766403624,6.002487852451294,1000.0,1
20.008458852767944,1099.6826887130737,766.4473056793213,2.2173577978102257,1371.325039544838,722.6997942526576,2.1023774881828166,275.1425294668809,6.58788646875797,1000.0,1
20.125176429748535,1098.8962650299072,766.528069972992,2.270277518083908,1366.859275656209,720.5387131665382,2.15532308484221,271.8808489088242,6.586403861067674,1000.0,1
20.241899251937866,1098.2106924057007,766.7884230613708,2.315714615072188,1358.0599165800468,722.2403060243646,2.2132688844821344,263.6401980646206,5.869707991944349,1000.0,1
20.36687135696411,1099.9993085861206,764.7801041603088,2.3679069828814305,1349.1983789619255,732.0145667182144,2.2704495344422675,251.34390209439073,5.583900477677875,1000.0,1
20.608596324920654,1063.1896257400513,800.8033633232117,2.380094902308401,1322.3344747805054,758.9154494178907,2.3073780639665897,262.508381038662,4.166367936520872,1000.0,1
20.825183868408203,1033.484697341919,825.5217671394348,2.392144363920533,1288.593201918417,790.3780350428082,2.3181154568848448,257.5178265925227,4.241543935111254,1000.0,1
21.04184627532959,1008.7381601333618,850.1763343811035,2.410269191181859,1262.7066259027279,819.4839166814404,2.3354996169843516,255.81635231059067,4.283981037507421,1000.0,1
21.28351855278015,977.6065349578857,876.4288425445557,2.419287822214919,1231.3984889181963,852.700985145597,2.352536308129844,254.8987389371272,3.824580033182864,1000.0,1
21.500162601470947,951.3777494430542,899.93816614151,2.437936790568422,1198.1670003527474,882.4907870485274,2.367964212731839,247.40522508989534,4.009133391686848,1000.0,1
21.700146913528442,925.2548217773438,922.2010374069214,2.447189696561029,1161.2807330452854,916.8711744294623,2.3963799168131183,236.08608224378824,2.911185937544572,1000.0,1
21.900243759155273,899.798572063446,944.9530839920044,2.458466359719311,1131.663277011176,944.6261202215292,2.4135032667253493,231.8649354814243,2.576195462408235,1000.0,1
22.100146770477295,876.469075679779,966.7576551437378,2.476201213651844,1090.9051292219501,977.5027152365368,2.4415234614887313,214.70509396644206,1.986888841947009,1000.0,1
22.300148725509644,849.5272397994995,988.7818098068237,2.4855972512274764,1056.248250584625,1004.6790196917192,2.4601690024950167,207.33137143748513,1.4569313327788287,1000.0,1
22.500193119049072,822.1219778060913,1010.151743888855,2.49413594723155,1019.7259610366751,1035.7861023975995,2.480986602782945,199.25976644758893,0.753401940268848,1000.0,1
22.70016622543335,795.1552271842957,1031.0032367706299,2.504814764046377,986.5884104749973,1061.7882527241363,2.497968358077094,193.8927045354441,0.3922701668730887,1000.0,1
22.90017342567444,766.6124105453491,1051.8587827682495,2.5148611151768603,954.1586431593248,1088.2538995377324,2.5041693000260867,191.04500488722488,0.6125958834733546,1000.0,1
23.100257635116577,732.3350310325623,1075.3512382507324,2.5274517863832786,913.2772933754462,1116.13675024616,2.533127018173874,185.48196756151316,0.32516682935958136,1000.0,1
23.275221586227417,709.0538740158081,1090.7151699066162,2.5386304274377265,888.3441566475162,1135.959654324439,2.5386533303731764,184.91097538110708,0.0013122415397416062,1000.0,1
23.45854878425598,681.5416812896729,1108.8817119598389,2.542177315902197,857.0652240290194,1156.013198668675,2.548490939901174,181.74127515552544,0.36174400857388833,1000.0,1
23.64191174507141,652.946412563324,1128.127932548523,2.549928205778115,826.7905029559953,1174.660739240025,2.554392706183138,179.96407936875616,0.2557970308422772,1000.0,1
23.80025339126587,629.2880773544312,1144.6726322174072,2.554687172571356,789.9304246668044,1193.9764304113226,2.5710252069051798,168.03817502691305,0.936100412867947,1000.0,1
